sensor1_t1,sensor2_t1,sensor3_t1,sensor4_t1,sensor5_t1,sensor6_t1,sensor1_t2,sensor2_t2,sensor3_t2,sensor4_t2,sensor5_t2,sensor6_t2,sensor1_t3,sensor2_t3,sensor3_t3,sensor4_t3,sensor5_t3,sensor6_t3,sensor1_t4,sensor2_t4,sensor3_t4,sensor4_t4,sensor5_t4,sensor6_t4,sensor1_t5,sensor2_t5,sensor3_t5,sensor4_t5,sensor5_t5,sensor6_t5,sensor1_t6,sensor2_t6,sensor3_t6,sensor4_t6,sensor5_t6,sensor6_t6,sensor1_t7,sensor2_t7,sensor3_t7,sensor4_t7,sensor5_t7,sensor6_t7,sensor1_t8,sensor2_t8,sensor3_t8,sensor4_t8,sensor5_t8,sensor6_t8,sensor1_t9,sensor2_t9,sensor3_t9,sensor4_t9,sensor5_t9,sensor6_t9,sensor1_t10,sensor2_t10,sensor3_t10,sensor4_t10,sensor5_t10,sensor6_t10,sensor1_t11,sensor2_t11,sensor3_t11,sensor4_t11,sensor5_t11,sensor6_t11,sensor1_t12,sensor2_t12,sensor3_t12,sensor4_t12,sensor5_t12,sensor6_t12,sensor1_t13,sensor2_t13,sensor3_t13,sensor4_t13,sensor5_t13,sensor6_t13,sensor1_t14,sensor2_t14,sensor3_t14,sensor4_t14,sensor5_t14,sensor6_t14,sensor1_t15,sensor2_t15,sensor3_t15,sensor4_t15,sensor5_t15,sensor6_t15,sensor1_t16,sensor2_t16,sensor3_t16,sensor4_t16,sensor5_t16,sensor6_t16,sensor1_t17,sensor2_t17,sensor3_t17,sensor4_t17,sensor5_t17,sensor6_t17,sensor1_t18,sensor2_t18,sensor3_t18,sensor4_t18,sensor5_t18,sensor6_t18,sensor1_t19,sensor2_t19,sensor3_t19,sensor4_t19,sensor5_t19,sensor6_t19,sensor1_t20,sensor2_t20,sensor3_t20,sensor4_t20,sensor5_t20,sensor6_t20,sensor1_t21,sensor2_t21,sensor3_t21,sensor4_t21,sensor5_t21,sensor6_t21,sensor1_t22,sensor2_t22,sensor3_t22,sensor4_t22,sensor5_t22,sensor6_t22,sensor1_t23,sensor2_t23,sensor3_t23,sensor4_t23,sensor5_t23,sensor6_t23,sensor1_t24,sensor2_t24,sensor3_t24,sensor4_t24,sensor5_t24,sensor6_t24,sensor1_t25,sensor2_t25,sensor3_t25,sensor4_t25,sensor5_t25,sensor6_t25,sensor1_t26,sensor2_t26,sensor3_t26,sensor4_t26,sensor5_t26,sensor6_t26,sensor1_t27,sensor2_t27,sensor3_t27,sensor4_t27,sensor5_t27,sensor6_t27,sensor1_t28,sensor2_t28,sensor3_t28,sensor4_t28,sensor5_t28,sensor6_t28,sensor1_t29,sensor2_t29,sensor3_t29,sensor4_t29,sensor5_t29,sensor6_t29,sensor1_t30,sensor2_t30,sensor3_t30,sensor4_t30,sensor5_t30,sensor6_t30,sensor1_t31,sensor2_t31,sensor3_t31,sensor4_t31,sensor5_t31,sensor6_t31,sensor1_t32,sensor2_t32,sensor3_t32,sensor4_t32,sensor5_t32,sensor6_t32,sensor1_t33,sensor2_t33,sensor3_t33,sensor4_t33,sensor5_t33,sensor6_t33,sensor1_t34,sensor2_t34,sensor3_t34,sensor4_t34,sensor5_t34,sensor6_t34,sensor1_t35,sensor2_t35,sensor3_t35,sensor4_t35,sensor5_t35,sensor6_t35,sensor1_t36,sensor2_t36,sensor3_t36,sensor4_t36,sensor5_t36,sensor6_t36,sensor1_t37,sensor2_t37,sensor3_t37,sensor4_t37,sensor5_t37,sensor6_t37,sensor1_t38,sensor2_t38,sensor3_t38,sensor4_t38,sensor5_t38,sensor6_t38,sensor1_t39,sensor2_t39,sensor3_t39,sensor4_t39,sensor5_t39,sensor6_t39,sensor1_t40,sensor2_t40,sensor3_t40,sensor4_t40,sensor5_t40,sensor6_t40,sensor1_t41,sensor2_t41,sensor3_t41,sensor4_t41,sensor5_t41,sensor6_t41,sensor1_t42,sensor2_t42,sensor3_t42,sensor4_t42,sensor5_t42,sensor6_t42,sensor1_t43,sensor2_t43,sensor3_t43,sensor4_t43,sensor5_t43,sensor6_t43,sensor1_t44,sensor2_t44,sensor3_t44,sensor4_t44,sensor5_t44,sensor6_t44,sensor1_t45,sensor2_t45,sensor3_t45,sensor4_t45,sensor5_t45,sensor6_t45,sensor1_t46,sensor2_t46,sensor3_t46,sensor4_t46,sensor5_t46,sensor6_t46,sensor1_t47,sensor2_t47,sensor3_t47,sensor4_t47,sensor5_t47,sensor6_t47,sensor1_t48,sensor2_t48,sensor3_t48,sensor4_t48,sensor5_t48,sensor6_t48,sensor1_t49,sensor2_t49,sensor3_t49,sensor4_t49,sensor5_t49,sensor6_t49,sensor1_t50,sensor2_t50,sensor3_t50,sensor4_t50,sensor5_t50,sensor6_t50,gesture
2713,2708,2719,2701,2721,2705,2689,2715,2704,2701,2707,2718,2715,2704,2713,2720,2721,2708,2717,2693,2723,2720,2704,2707,2704,2710,2705,2701,2710,2699,2714,2717,2703,2717,2703,2721,2704,2708,2706,2717,2706,2714,2722,2699,2717,2702,2724,2704,2713,2701,2711,2698,2719,2699,2704,2703,2715,2705,2704,2719,2709,2709,2704,2714,2702,2724,2715,2704,2713,2709,2705,2717,2700,2719,2701,2706,2720,2701,2715,2717,2700,2717,2711,2704,2727,2689,2714,2707,2702,2716,2693,2708,2702,2717,2711,2702,2694,2695,2714,2710,2713,2718,2689,2706,2719,2717,2721,2717,2708,2718,2707,2704,2703,2700,2704,2710,2717,2711,2709,2703,2704,2707,2717,2704,2707,2702,2715,2704,2722,2704,2718,2701,2704,2709,2730,2701,2725,2696,2727,2704,2720,2697,2718,2699,2700,2715,2707,2706,2722,2703,2693,2714,2703,2707,2713,2704,2704,2704,2711,2709,2710,2706,2723,2704,2706,2699,2707,2704,2705,2707,2705,2715,2705,2718,2709,2704,2718,2703,2726,2704,2701,2716,2699,2711,2703,2714,2710,2704,2705,2711,2718,2700,2709,2706,2718,2699,2717,2701,2717,2693,2721,2700,2721,2699,2708,2699,2719,2701,2721,2702,2710,2714,2704,2718,2710,2704,2704,2700,2709,2703,2722,2703,2686,2703,2703,2715,2713,2700,2706,2703,2713,2717,2723,2713,2703,2703,2705,2710,2723,2721,2723,2698,2709,2721,2722,2718,2687,2704,2704,2707,2703,2718,2691,2699,2705,2706,2703,2716,2699,2704,2704,2704,2702,2713,2692,2717,2708,2718,2705,2706,2696,2717,2705,2714,2707,2701,2704,2719,2704,2713,2710,2700,2704,2704,2695,2721,2707,2710,2709,2684,2723,2701,2719,2706,2722,2693,2718,2703,2714,2705,thumbup
2683,2693,2725,2717,2714,2704,2719,2723,2708,2704,2704,2700,2701,2699,2715,2713,2697,2717,2704,2714,2698,2710,2704,2694,2694,2705,2705,2715,2707,2704,2701,2707,2719,2701,2719,2710,2695,2710,2695,2717,2705,2709,2715,2705,2703,2702,2719,2695,2693,2704,2702,2701,2707,2719,2706,2704,2705,2706,2705,2715,2704,2705,2704,2704,2708,2709,2705,2695,2707,2708,2718,2703,2713,2704,2718,2704,2703,2706,2690,2712,2702,2715,2710,2702,2717,2686,2713,2697,2721,2707,2699,2718,2697,2715,2713,2703,2705,2705,2721,2699,2718,2708,2712,2709,2701,2698,2703,2701,2715,2698,2719,2701,2702,2697,2704,2691,2701,2703,2714,2704,2691,2699,2704,2714,2703,2718,2703,2715,2695,2715,2704,2708,2709,2684,2720,2699,2720,2703,2704,2704,2706,2711,2702,2714,2691,2704,2704,2707,2702,2716,2718,2691,2704,2704,2711,2717,2719,2704,2693,2699,2707,2717,2691,2709,2714,2721,2723,2704,2722,2691,2705,2705,2707,2714,2703,2719,2706,2694,2705,2706,2703,2691,2709,2705,2700,2717,2690,2701,2717,2722,2723,2711,2702,2694,2699,2719,2699,2717,2709,2704,2717,2695,2719,2703,2703,2711,2714,2695,2721,2704,2702,2711,2705,2704,2720,2701,2694,2723,2717,2703,2703,2713,2705,2693,2722,2694,2719,2704,2717,2711,2709,2698,2707,2706,2704,2693,2702,2699,2726,2720,2695,2700,2722,2699,2721,2711,2704,2713,2708,2695,2704,2710,2710,2714,2709,2710,2704,2704,2703,2695,2726,2704,2700,2723,2700,2704,2726,2721,2715,2714,2701,2707,2706,2710,2723,2704,2693,2720,2703,2705,2720,2706,2710,2701,2706,2694,2704,2702,2698,2699,2704,2705,2704,2716,2704,2695,2709,2717,2704,2699,thumbup
2710,2688,2707,2700,2717,2707,2695,2721,2718,2707,2704,2711,2709,2707,2698,2717,2704,2702,2704,2716,2699,2714,2704,2704,2708,2709,2694,2716,2705,2703,2686,2718,2705,2704,2722,2703,2713,2703,2693,2718,2704,2705,2706,2704,2717,2697,2722,2703,2692,2686,2717,2704,2707,2717,2715,2698,2710,2705,2703,2718,2697,2709,2694,2715,2707,2703,2703,2706,2698,2717,2711,2699,2710,2691,2711,2707,2702,2707,2707,2719,2705,2709,2715,2699,2689,2689,2704,2695,2722,2704,2704,2704,2701,2700,2721,2703,2705,2686,2713,2701,2705,2711,2718,2686,2718,2707,2700,2716,2709,2702,2720,2705,2697,2715,2709,2704,2718,2700,2707,2718,2717,2691,2718,2704,2703,2719,2715,2704,2707,2701,2719,2706,2711,2705,2705,2699,2720,2703,2709,2707,2711,2713,2705,2720,2715,2692,2710,2715,2702,2720,2699,2707,2703,2707,2715,2699,2723,2699,2707,2701,2705,2715,2695,2723,2697,2721,2709,2701,2702,2708,2698,2715,2704,2719,2699,2721,2701,2706,2714,2694,2687,2721,2701,2713,2709,2703,2704,2707,2705,2702,2713,2701,2698,2704,2710,2704,2713,2699,2725,2705,2701,2714,2705,2694,2722,2698,2722,2705,2701,2717,2698,2713,2706,2720,2704,2719,2718,2702,2702,2719,2704,2699,2704,2704,2711,2699,2719,2705,2706,2704,2709,2701,2720,2708,2706,2701,2708,2702,2712,2700,2695,2727,2706,2720,2703,2706,2703,2703,2709,2695,2720,2704,2706,2701,2714,2695,2719,2707,2697,2698,2706,2715,2705,2708,2706,2701,2715,2700,2715,2711,2693,2705,2709,2701,2703,2710,2703,2719,2717,2698,2717,2704,2701,2718,2699,2711,2704,2718,2704,2682,2718,2699,2717,2704,2715,2704,2720,2704,2702,2715,thumbup
2695,2703,2694,2710,2707,2698,2693,2711,2704,2703,2718,2700,2725,2705,2693,2711,2703,2719,2714,2703,2710,2704,2699,2709,2706,2689,2709,2704,2695,2714,2714,2694,2720,2703,2695,2705,2693,2694,2703,2716,2705,2695,2704,2703,2708,2703,2702,2706,2721,2702,2692,2705,2704,2692,2691,2694,2702,2709,2705,2719,2701,2723,2704,2714,2704,2695,2690,2692,2711,2697,2725,2704,2710,2709,2723,2704,2697,2708,2717,2691,2716,2704,2699,2717,2707,2707,2703,2713,2704,2722,2691,2695,2700,2698,2713,2703,2710,2689,2713,2704,2698,2711,2690,2720,2705,2699,2719,2704,2707,2698,2704,2709,2704,2693,2703,2709,2704,2692,2715,2699,2689,2717,2702,2693,2710,2701,2704,2694,2715,2704,2711,2703,2710,2687,2723,2704,2697,2711,2704,2706,2704,2715,2711,2699,2721,2695,2705,2714,2703,2720,2704,2704,2717,2704,2701,2711,2727,2704,2704,2718,2704,2709,2686,2703,2703,2706,2714,2704,2705,2679,2711,2695,2713,2703,2694,2707,2706,2719,2707,2693,2712,2704,2704,2698,2718,2702,2705,2706,2706,2693,2711,2702,2704,2706,2721,2706,2692,2710,2704,2719,2707,2692,2709,2701,2695,2710,2704,2709,2706,2698,2706,2704,2710,2704,2702,2709,2691,2713,2704,2711,2710,2693,2682,2701,2704,2707,2703,2709,2714,2704,2709,2705,2702,2719,2707,2695,2715,2704,2722,2711,2718,2704,2702,2711,2705,2713,2698,2704,2717,2704,2727,2706,2704,2703,2714,2702,2717,2710,2695,2711,2707,2718,2704,2695,2707,2713,2704,2693,2706,2702,2687,2697,2708,2711,2704,2691,2708,2693,2718,2701,2721,2704,2698,2689,2715,2698,2723,2705,2691,2698,2722,2704,2723,2707,2689,2699,2705,2695,2709,2699,thumbup
2702,2717,2704,2691,2710,2697,2694,2704,2705,2694,2713,2704,2701,2688,2713,2703,2703,2707,2704,2695,2694,2704,2706,2692,2702,2678,2715,2695,2722,2707,2707,2704,2717,2704,2710,2710,2701,2721,2702,2693,2713,2703,2691,2703,2704,2704,2714,2704,2701,2704,2704,2694,2722,2703,2704,2699,2695,2699,2702,2705,2701,2703,2691,2704,2703,2718,2704,2703,2707,2709,2703,2717,2713,2689,2717,2698,2725,2707,2703,2701,2707,2695,2701,2697,2691,2686,2721,2703,2698,2709,2708,2709,2703,2704,2711,2704,2719,2721,2707,2704,2710,2707,2705,2704,2707,2693,2707,2700,2701,2688,2699,2716,2708,2702,2694,2690,2693,2709,2704,2702,2717,2687,2717,2706,2703,2706,2705,2694,2704,2702,2699,2704,2702,2710,2706,2701,2701,2696,2715,2719,2711,2704,2704,2716,2704,2698,2715,2705,2703,2715,2704,2694,2698,2701,2700,2698,2719,2711,2702,2703,2706,2703,2717,2709,2709,2698,2699,2698,2707,2706,2706,2693,2688,2697,2720,2698,2725,2704,2695,2711,2710,2709,2698,2711,2714,2709,2710,2710,2695,2698,2698,2695,2701,2703,2691,2723,2714,2710,2691,2690,2702,2721,2715,2705,2711,2697,2707,2698,2697,2694,2702,2701,2701,2699,2710,2714,2702,2711,2711,2704,2705,2690,2715,2703,2701,2718,2704,2694,2694,2699,2697,2698,2705,2709,2704,2692,2717,2693,2709,2704,2694,2711,2699,2713,2704,2699,2691,2702,2701,2702,2719,2719,2697,2716,2711,2707,2705,2704,2709,2704,2694,2715,2704,2698,2702,2693,2701,2703,2703,2695,2695,2699,2704,2702,2694,2699,2693,2694,2714,2704,2699,2717,2704,2699,2697,2695,2693,2694,2719,2695,2719,2706,2704,2698,2693,2688,2694,2717,2706,2694,thumbup
2719,2709,2708,2707,2709,2703,2693,2704,2704,2690,2710,2705,2704,2710,2704,2714,2711,2703,2711,2709,2698,2714,2704,2692,2711,2717,2702,2704,2701,2702,2690,2719,2719,2704,2703,2698,2693,2703,2693,2704,2719,2701,2732,2705,2712,2701,2721,2709,2703,2709,2709,2694,2705,2703,2720,2699,2704,2698,2713,2702,2710,2694,2709,2697,2703,2709,2717,2695,2711,2703,2698,2707,2699,2689,2718,2706,2693,2710,2697,2699,2689,2710,2703,2714,2707,2694,2704,2706,2702,2718,2724,2704,2695,2707,2699,2715,2714,2675,2707,2696,2715,2701,2714,2704,2713,2705,2702,2710,2702,2704,2704,2699,2702,2698,2686,2697,2704,2695,2720,2703,2714,2695,2711,2707,2704,2711,2723,2703,2707,2715,2707,2691,2690,2682,2701,2693,2704,2718,2716,2704,2695,2714,2703,2707,2704,2704,2705,2719,2705,2702,2704,2698,2723,2703,2698,2713,2721,2698,2699,2718,2704,2707,2720,2709,2719,2704,2697,2704,2710,2704,2704,2699,2714,2703,2710,2692,2707,2704,2694,2710,2702,2704,2693,2697,2695,2703,2718,2705,2705,2699,2698,2695,2713,2698,2704,2707,2695,2718,2686,2704,2699,2711,2704,2704,2704,2711,2697,2692,2707,2697,2693,2711,2693,2698,2710,2698,2709,2688,2698,2704,2694,2721,2709,2701,2698,2689,2697,2689,2701,2704,2707,2703,2701,2709,2692,2715,2714,2709,2709,2704,2706,2693,2714,2701,2719,2708,2693,2681,2714,2701,2697,2704,2703,2701,2691,2697,2718,2715,2689,2714,2699,2722,2708,2695,2719,2704,2708,2704,2703,2698,2711,2705,2707,2704,2698,2697,2703,2702,2698,2713,2714,2711,2695,2694,2697,2693,2723,2720,2703,2693,2704,2694,2721,2704,2706,2723,2704,2703,2708,2702,thumbup
2704,2723,2704,2694,2711,2704,2699,2722,2709,2695,2714,2699,2704,2703,2704,2703,2703,2697,2698,2691,2711,2720,2721,2708,2683,2721,2714,2714,2709,2704,2704,2698,2706,2710,2704,2698,2719,2688,2729,2706,2704,2719,2704,2713,2707,2695,2715,2704,2700,2701,2713,2694,2715,2703,2691,2706,2697,2715,2706,2693,2702,2689,2695,2714,2711,2715,2710,2704,2695,2717,2704,2711,2719,2723,2716,2715,2712,2704,2711,2706,2723,2704,2699,2707,2704,2703,2704,2703,2724,2704,2698,2720,2707,2704,2699,2695,2701,2716,2708,2707,2713,2710,2694,2704,2694,2717,2706,2691,2687,2709,2718,2711,2709,2704,2698,2701,2694,2694,2703,2695,2701,2695,2707,2699,2719,2707,2704,2694,2715,2702,2697,2714,2709,2702,2695,2713,2704,2719,2729,2709,2706,2717,2705,2695,2704,2709,2715,2703,2697,2692,2688,2699,2706,2699,2710,2702,2701,2709,2715,2704,2699,2704,2702,2721,2707,2705,2707,2703,2693,2698,2703,2699,2719,2705,2734,2702,2718,2704,2722,2704,2705,2710,2710,2703,2706,2702,2695,2702,2706,2698,2719,2703,2686,2695,2704,2698,2694,2719,2706,2711,2709,2704,2707,2699,2701,2706,2705,2697,2699,2715,2700,2691,2699,2695,2723,2717,2703,2693,2688,2719,2719,2717,2707,2695,2695,2709,2701,2717,2688,2720,2702,2710,2709,2704,2698,2704,2699,2710,2702,2713,2707,2688,2701,2702,2700,2702,2704,2704,2700,2697,2719,2709,2696,2711,2727,2707,2704,2716,2685,2701,2699,2711,2710,2693,2704,2708,2703,2701,2718,2704,2720,2706,2695,2710,2703,2719,2702,2689,2726,2702,2710,2704,2703,2689,2730,2703,2701,2714,2695,2704,2711,2701,2711,2707,2704,2695,2717,2702,2725,2704,thumbup
2695,2699,2707,2719,2701,2704,2711,2713,2709,2706,2711,2697,2691,2715,2698,2719,2707,2701,2705,2697,2706,2697,2721,2707,2705,2699,2719,2705,2702,2714,2689,2707,2711,2704,2723,2704,2715,2695,2717,2704,2699,2713,2693,2691,2715,2698,2723,2706,2716,2702,2694,2707,2698,2718,2703,2695,2711,2697,2719,2704,2713,2698,2707,2702,2698,2711,2698,2688,2716,2704,2722,2708,2727,2709,2707,2695,2707,2704,2697,2704,2702,2714,2709,2697,2693,2723,2701,2718,2713,2699,2714,2703,2721,2705,2702,2716,2722,2704,2705,2707,2698,2718,2682,2699,2704,2717,2706,2722,2697,2707,2696,2708,2701,2716,2699,2704,2702,2719,2706,2701,2688,2722,2707,2722,2703,2701,2715,2683,2711,2701,2711,2698,2716,2710,2691,2710,2702,2721,2688,2713,2711,2702,2721,2704,2704,2693,2701,2707,2701,2720,2704,2687,2710,2703,2719,2707,2707,2690,2715,2702,2703,2704,2727,2701,2693,2707,2705,2717,2701,2699,2700,2710,2699,2714,2692,2723,2711,2693,2714,2698,2704,2703,2698,2717,2704,2702,2689,2707,2694,2717,2704,2694,2719,2707,2688,2706,2703,2713,2703,2703,2703,2709,2700,2719,2710,2695,2711,2698,2717,2707,2690,2702,2710,2694,2710,2695,2707,2699,2704,2694,2719,2704,2725,2698,2710,2704,2700,2718,2689,2723,2691,2721,2709,2700,2713,2703,2725,2704,2725,2706,2692,2702,2715,2704,2716,2704,2693,2711,2695,2715,2707,2697,2706,2690,2709,2699,2720,2707,2710,2708,2710,2695,2711,2704,2704,2689,2720,2704,2724,2709,2708,2705,2697,2710,2693,2716,2715,2704,2713,2693,2709,2695,2704,2686,2713,2699,2722,2708,2707,2693,2719,2704,2720,2704,2704,2684,2706,2701,2701,2705,thumbup
2715,2695,2715,2704,2694,2710,2725,2706,2697,2716,2705,2698,2705,2705,2704,2693,2710,2695,2699,2678,2699,2699,2709,2701,2704,2689,2710,2710,2704,2693,2697,2718,2702,2718,2706,2701,2710,2706,2687,2711,2704,2689,2719,2704,2689,2704,2695,2715,2704,2703,2701,2706,2705,2703,2705,2697,2704,2702,2715,2703,2704,2721,2704,2702,2723,2704,2709,2718,2704,2699,2709,2704,2713,2709,2695,2709,2701,2711,2716,2714,2708,2701,2714,2705,2695,2707,2705,2721,2705,2699,2717,2698,2717,2703,2694,2711,2718,2697,2713,2705,2701,2713,2704,2703,2715,2703,2714,2714,2703,2704,2715,2699,2719,2704,2689,2704,2699,2702,2707,2699,2706,2704,2704,2707,2699,2717,2719,2695,2730,2704,2703,2711,2688,2705,2695,2715,2714,2704,2701,2698,2702,2709,2704,2720,2707,2715,2703,2711,2706,2716,2718,2695,2715,2704,2696,2707,2701,2706,2705,2694,2707,2695,2700,2718,2714,2703,2712,2701,2704,2693,2719,2707,2699,2711,2701,2704,2704,2705,2707,2703,2697,2708,2704,2695,2710,2701,2710,2704,2717,2707,2703,2720,2686,2710,2700,2719,2710,2699,2693,2702,2717,2712,2703,2689,2706,2702,2707,2704,2726,2705,2686,2704,2703,2720,2711,2705,2704,2693,2707,2721,2706,2696,2696,2709,2694,2711,2704,2720,2682,2701,2719,2699,2720,2704,2703,2710,2699,2711,2704,2699,2702,2703,2711,2704,2725,2706,2709,2724,2707,2695,2714,2704,2701,2707,2698,2717,2706,2709,2707,2699,2712,2701,2718,2704,2714,2706,2711,2704,2726,2704,2716,2702,2713,2700,2715,2704,2710,2690,2707,2708,2715,2704,2691,2701,2695,2714,2704,2690,2725,2698,2699,2707,2704,2720,2696,2703,2706,2694,2720,2705,thumbup
2711,2694,2715,2702,2699,2711,2715,2704,2699,2707,2707,2711,2706,2688,2722,2699,2699,2719,2704,2693,2719,2705,2703,2692,2690,2703,2701,2694,2709,2701,2720,2707,2695,2713,2704,2709,2689,2709,2714,2699,2714,2704,2717,2699,2722,2703,2699,2714,2711,2704,2710,2699,2716,2714,2705,2697,2688,2716,2705,2699,2699,2714,2704,2695,2718,2704,2695,2703,2708,2691,2707,2702,2699,2719,2704,2690,2707,2696,2705,2689,2727,2705,2694,2715,2693,2711,2707,2719,2710,2699,2699,2689,2718,2706,2703,2711,2691,2709,2707,2695,2718,2704,2711,2722,2704,2698,2714,2701,2681,2706,2698,2719,2708,2722,2709,2688,2711,2699,2721,2704,2688,2700,2701,2717,2713,2692,2701,2694,2709,2702,2710,2706,2685,2711,2703,2710,2711,2700,2692,2707,2706,2718,2706,2699,2702,2693,2704,2703,2715,2702,2702,2721,2704,2695,2719,2704,2691,2704,2704,2713,2707,2705,2715,2704,2704,2709,2706,2715,2703,2697,2716,2701,2721,2705,2694,2727,2704,2721,2706,2697,2710,2688,2707,2704,2701,2715,2721,2701,2725,2706,2703,2695,2697,2708,2706,2699,2723,2709,2703,2704,2709,2699,2712,2705,2691,2720,2701,2691,2714,2697,2704,2694,2704,2698,2709,2699,2695,2707,2704,2706,2703,2697,2701,2706,2706,2698,2714,2702,2725,2698,2699,2710,2704,2715,2707,2704,2713,2696,2719,2707,2698,2677,2704,2719,2719,2704,2729,2713,2707,2707,2704,2705,2707,2693,2693,2709,2704,2699,2697,2699,2698,2702,2711,2706,2701,2704,2713,2707,2704,2706,2700,2701,2710,2707,2694,2710,2704,2691,2714,2704,2701,2701,2714,2704,2708,2703,2698,2712,2704,2697,2727,2705,2699,2707,2729,2704,2691,2721,2710,2698,thumbup
2715,2704,2722,2709,2706,2705,2694,2702,2707,2704,2722,2705,2716,2699,2729,2704,2701,2719,2704,2715,2705,2718,2711,2703,2687,2704,2705,2720,2707,2701,2709,2703,2721,2703,2697,2715,2706,2706,2704,2701,2704,2720,2691,2704,2711,2698,2710,2702,2694,2690,2719,2711,2711,2710,2704,2695,2722,2704,2714,2715,2695,2704,2699,2719,2715,2701,2713,2704,2708,2703,2704,2703,2686,2719,2727,2719,2717,2709,2699,2693,2694,2694,2695,2709,2688,2710,2699,2713,2705,2704,2707,2694,2699,2717,2715,2713,2695,2700,2707,2710,2701,2697,2715,2689,2715,2708,2700,2719,2719,2698,2700,2720,2704,2704,2694,2705,2718,2719,2715,2708,2714,2699,2695,2712,2704,2706,2707,2695,2703,2714,2704,2694,2721,2707,2709,2709,2707,2705,2698,2710,2703,2698,2715,2703,2702,2710,2706,2697,2714,2704,2715,2721,2710,2707,2705,2704,2704,2702,2694,2714,2704,2702,2713,2708,2704,2717,2707,2703,2720,2705,2704,2708,2707,2705,2706,2714,2697,2704,2713,2702,2702,2685,2717,2704,2693,2709,2704,2691,2694,2697,2706,2720,2704,2713,2691,2709,2705,2699,2714,2708,2714,2704,2703,2695,2699,2693,2705,2701,2721,2706,2682,2698,2691,2717,2710,2711,2702,2705,2715,2715,2710,2705,2701,2693,2707,2703,2711,2715,2705,2677,2715,2701,2725,2707,2718,2721,2714,2704,2704,2702,2709,2703,2720,2704,2699,2719,2704,2716,2701,2698,2699,2692,2721,2725,2711,2706,2704,2704,2682,2709,2723,2711,2710,2705,2682,2695,2719,2715,2711,2704,2699,2683,2721,2715,2715,2707,2693,2684,2723,2711,2701,2717,2706,2703,2704,2704,2703,2705,2681,2720,2707,2690,2707,2701,2714,2721,2704,2710,2704,2702,thumbup
2691,2720,2714,2709,2705,2711,2716,2699,2701,2693,2700,2694,2700,2715,2704,2711,2711,2704,2697,2699,2701,2697,2702,2719,2694,2681,2704,2711,2709,2708,2688,2693,2697,2693,2723,2714,2717,2705,2711,2710,2706,2707,2709,2695,2704,2704,2701,2709,2702,2704,2705,2694,2714,2706,2693,2704,2701,2709,2710,2693,2689,2704,2704,2711,2707,2708,2701,2707,2704,2720,2708,2697,2687,2717,2714,2701,2711,2705,2727,2704,2689,2708,2707,2690,2704,2686,2713,2704,2698,2709,2710,2704,2705,2711,2709,2704,2690,2709,2715,2698,2721,2702,2703,2705,2717,2699,2722,2705,2691,2688,2713,2717,2720,2714,2689,2719,2698,2718,2714,2697,2713,2698,2714,2713,2703,2721,2705,2690,2720,2701,2701,2711,2705,2704,2703,2701,2697,2693,2693,2705,2711,2702,2701,2714,2701,2690,2723,2704,2697,2704,2704,2697,2714,2703,2720,2707,2717,2695,2722,2704,2699,2718,2686,2699,2714,2697,2722,2706,2704,2700,2727,2721,2716,2715,2701,2707,2691,2715,2705,2694,2706,2711,2702,2711,2713,2701,2723,2713,2703,2702,2703,2695,2706,2695,2722,2704,2704,2715,2690,2711,2707,2700,2696,2705,2704,2700,2701,2702,2704,2701,2704,2698,2704,2707,2704,2718,2699,2707,2707,2704,2720,2702,2688,2721,2727,2708,2707,2707,2709,2704,2711,2704,2704,2698,2688,2706,2718,2694,2722,2715,2704,2708,2701,2698,2719,2706,2704,2713,2711,2704,2701,2695,2707,2702,2704,2695,2719,2702,2699,2701,2700,2716,2710,2697,2700,2684,2719,2721,2705,2691,2721,2705,2715,2701,2698,2714,2704,2691,2704,2702,2711,2699,2702,2685,2704,2695,2709,2701,2704,2704,2697,2709,2703,2694,2704,2723,2710,2707,2710,2704,thumbup
2704,2688,2723,2716,2718,2706,2690,2694,2705,2695,2693,2705,2705,2711,2710,2693,2720,2704,2694,2718,2717,2704,2702,2694,2704,2692,2704,2702,2699,2697,2714,2688,2701,2701,2706,2716,2699,2721,2713,2713,2711,2693,2704,2691,2704,2695,2717,2702,2704,2700,2715,2701,2715,2702,2703,2705,2729,2704,2709,2715,2698,2691,2707,2698,2725,2704,2687,2714,2724,2720,2719,2715,2691,2698,2704,2699,2695,2693,2690,2695,2706,2701,2698,2713,2695,2703,2697,2693,2710,2714,2703,2704,2697,2706,2704,2701,2719,2699,2703,2700,2705,2695,2699,2687,2727,2704,2695,2716,2704,2712,2706,2694,2715,2705,2704,2688,2699,2714,2703,2720,2704,2687,2713,2702,2717,2714,2698,2704,2710,2707,2707,2708,2713,2720,2715,2709,2711,2702,2710,2709,2710,2704,2704,2699,2717,2708,2704,2703,2701,2699,2703,2700,2719,2699,2719,2705,2699,2694,2715,2698,2720,2706,2688,2708,2701,2711,2704,2699,2688,2715,2714,2698,2705,2707,2690,2704,2705,2702,2704,2707,2720,2694,2704,2701,2704,2693,2691,2703,2702,2710,2713,2703,2704,2719,2711,2698,2722,2705,2688,2710,2709,2704,2704,2702,2708,2702,2703,2702,2701,2702,2683,2707,2714,2697,2717,2704,2696,2695,2723,2704,2711,2706,2706,2719,2711,2704,2704,2700,2711,2684,2710,2702,2697,2707,2710,2699,2704,2709,2710,2704,2688,2723,2707,2694,2719,2704,2699,2713,2695,2695,2717,2701,2705,2710,2719,2695,2709,2705,2721,2697,2709,2710,2704,2701,2702,2693,2695,2693,2723,2715,2704,2691,2704,2699,2704,2699,2690,2699,2718,2710,2710,2709,2701,2695,2718,2710,2706,2701,2722,2724,2717,2710,2709,2706,2719,2706,2704,2702,2704,2701,thumbup
2725,2706,2711,2704,2719,2705,2699,2722,2689,2719,2702,2722,2704,2695,2715,2699,2719,2705,2720,2704,2721,2701,2718,2704,2706,2710,2709,2701,2720,2701,2704,2687,2717,2707,2702,2709,2727,2704,2698,2717,2704,2713,2710,2705,2709,2707,2701,2721,2703,2701,2703,2698,2719,2703,2695,2689,2703,2704,2716,2710,2708,2706,2720,2704,2708,2708,2697,2695,2714,2698,2717,2699,2689,2718,2704,2715,2703,2711,2723,2687,2705,2699,2715,2699,2704,2727,2695,2717,2704,2715,2704,2702,2710,2714,2703,2720,2698,2706,2717,2700,2719,2703,2707,2704,2706,2719,2703,2721,2711,2699,2718,2699,2713,2700,2731,2703,2710,2716,2706,2705,2705,2699,2704,2711,2707,2710,2689,2697,2707,2710,2699,2712,2698,2711,2704,2709,2710,2701,2710,2699,2709,2697,2719,2700,2695,2719,2703,2715,2703,2720,2704,2693,2717,2700,2715,2702,2703,2704,2713,2710,2704,2716,2730,2693,2721,2699,2711,2705,2693,2711,2709,2704,2718,2704,2701,2707,2690,2715,2704,2719,2703,2708,2707,2714,2708,2699,2698,2698,2713,2704,2711,2704,2697,2723,2702,2716,2709,2699,2695,2725,2704,2715,2714,2700,2721,2698,2713,2701,2717,2701,2703,2710,2704,2711,2701,2715,2715,2689,2708,2695,2720,2704,2704,2707,2703,2705,2705,2703,2719,2689,2722,2699,2715,2705,2704,2711,2700,2713,2706,2697,2690,2709,2691,2714,2709,2703,2703,2707,2701,2715,2704,2719,2724,2689,2706,2700,2718,2697,2706,2683,2713,2703,2718,2706,2709,2694,2709,2700,2722,2702,2685,2711,2704,2707,2704,2711,2716,2706,2706,2699,2714,2702,2708,2721,2704,2708,2721,2703,2699,2697,2705,2705,2704,2708,2705,2715,2699,2718,2704,2714,thumbup
2703,2716,2704,2707,2709,2705,2691,2714,2701,2713,2707,2704,2698,2705,2698,2717,2704,2716,2707,2691,2711,2701,2718,2704,2719,2710,2704,2704,2713,2703,2687,2724,2714,2717,2706,2707,2721,2682,2710,2699,2718,2703,2704,2715,2708,2707,2715,2699,2699,2704,2697,2717,2703,2710,2719,2711,2704,2701,2711,2704,2704,2688,2714,2699,2718,2698,2713,2681,2714,2697,2721,2698,2701,2715,2700,2715,2703,2718,2716,2699,2717,2709,2715,2713,2690,2697,2722,2695,2719,2704,2698,2704,2697,2721,2703,2705,2710,2714,2705,2701,2707,2702,2688,2702,2705,2711,2703,2716,2695,2714,2703,2710,2711,2697,2703,2708,2703,2709,2704,2715,2718,2711,2697,2720,2704,2723,2695,2711,2693,2718,2705,2719,2722,2704,2707,2701,2719,2700,2704,2702,2714,2715,2704,2713,2718,2697,2722,2705,2704,2717,2689,2717,2707,2701,2709,2704,2696,2711,2705,2720,2704,2704,2694,2719,2695,2713,2709,2701,2704,2701,2710,2716,2719,2703,2705,2719,2708,2695,2718,2704,2704,2701,2717,2702,2704,2710,2729,2708,2707,2707,2702,2718,2702,2701,2723,2700,2711,2711,2715,2704,2728,2705,2701,2704,2704,2711,2691,2717,2711,2699,2706,2695,2717,2708,2704,2716,2699,2703,2723,2702,2706,2714,2718,2709,2719,2710,2703,2719,2684,2726,2707,2701,2723,2704,2691,2707,2709,2714,2704,2711,2704,2701,2713,2711,2699,2717,2704,2710,2704,2719,2701,2720,2699,2699,2705,2705,2722,2704,2705,2721,2702,2711,2703,2720,2705,2715,2703,2721,2704,2716,2704,2720,2717,2720,2709,2703,2714,2689,2709,2701,2715,2704,2719,2705,2718,2711,2704,2722,2704,2704,2711,2703,2711,2710,2719,2704,2726,2699,2729,2707,thumbup
2701,2701,2719,2700,2708,2717,2726,2707,2719,2711,2707,2702,2709,2711,2717,2711,2704,2719,2699,2698,2716,2706,2706,2707,2703,2713,2715,2704,2720,2700,2710,2689,2718,2701,2725,2699,2699,2699,2719,2701,2715,2700,2691,2711,2705,2705,2705,2717,2689,2704,2720,2703,2718,2706,2709,2715,2711,2701,2705,2716,2682,2709,2698,2710,2708,2708,2690,2717,2707,2720,2702,2704,2701,2699,2701,2704,2710,2700,2727,2701,2719,2701,2719,2701,2704,2688,2725,2701,2716,2701,2695,2697,2710,2701,2726,2704,2715,2691,2707,2705,2704,2720,2706,2703,2716,2704,2719,2701,2717,2718,2703,2721,2699,2711,2704,2706,2703,2719,2711,2705,2711,2710,2702,2715,2702,2711,2705,2716,2704,2710,2703,2707,2721,2694,2709,2699,2713,2706,2700,2693,2731,2702,2714,2711,2687,2721,2694,2707,2711,2698,2691,2714,2698,2718,2708,2699,2709,2717,2704,2714,2702,2719,2705,2704,2730,2703,2715,2704,2693,2718,2703,2708,2704,2709,2700,2710,2704,2720,2699,2714,2709,2707,2695,2718,2702,2704,2688,2704,2711,2704,2705,2713,2688,2711,2704,2715,2704,2722,2702,2704,2705,2711,2703,2707,2704,2695,2713,2710,2704,2709,2694,2707,2705,2715,2702,2711,2710,2688,2711,2699,2722,2706,2720,2701,2725,2699,2706,2706,2704,2701,2719,2704,2717,2711,2709,2699,2710,2702,2713,2699,2707,2705,2695,2710,2710,2701,2701,2692,2721,2717,2717,2705,2720,2709,2704,2702,2704,2704,2713,2708,2711,2695,2698,2715,2714,2688,2714,2717,2718,2713,2703,2685,2707,2698,2718,2705,2721,2699,2706,2711,2700,2722,2697,2704,2723,2699,2715,2714,2714,2705,2714,2704,2702,2721,2694,2708,2723,2718,2720,2710,thumbup
2702,2706,2705,2717,2707,2701,2704,2717,2722,2719,2718,2710,2718,2706,2705,2711,2709,2704,2685,2700,2717,2720,2713,2715,2701,2709,2702,2697,2703,2707,2715,2705,2703,2702,2703,2710,2704,2717,2705,2710,2702,2716,2705,2704,2723,2714,2704,2700,2711,2718,2695,2700,2703,2718,2711,2695,2704,2704,2704,2700,2704,2692,2709,2705,2702,2716,2733,2691,2719,2703,2700,2718,2722,2709,2704,2697,2699,2697,2720,2704,2703,2699,2721,2704,2699,2691,2704,2699,2701,2704,2723,2694,2720,2703,2720,2708,2706,2691,2704,2723,2720,2705,2694,2702,2704,2698,2721,2710,2698,2706,2704,2701,2715,2702,2703,2705,2718,2704,2702,2706,2704,2708,2699,2722,2707,2717,2694,2719,2705,2720,2702,2718,2695,2718,2706,2719,2705,2722,2697,2698,2715,2706,2701,2710,2707,2702,2710,2701,2722,2699,2713,2693,2721,2704,2703,2709,2703,2717,2705,2710,2704,2715,2721,2704,2703,2704,2721,2705,2711,2695,2713,2714,2723,2718,2707,2701,2699,2718,2722,2704,2723,2714,2704,2707,2718,2703,2711,2690,2704,2710,2718,2704,2695,2704,2720,2702,2715,2701,2704,2714,2707,2709,2709,2711,2710,2720,2706,2711,2698,2715,2711,2694,2720,2701,2719,2700,2710,2710,2717,2710,2711,2702,2703,2702,2695,2719,2699,2715,2689,2715,2726,2707,2704,2702,2693,2699,2716,2707,2706,2704,2721,2692,2727,2698,2721,2698,2703,2713,2707,2702,2704,2711,2691,2698,2713,2715,2704,2721,2704,2691,2713,2702,2718,2702,2721,2691,2714,2704,2717,2717,2709,2704,2708,2706,2703,2719,2702,2705,2708,2718,2724,2710,2706,2705,2701,2715,2702,2700,2721,2704,2724,2706,2704,2716,2704,2694,2719,2703,2704,2717,thumbup
2700,2718,2722,2704,2695,2709,2697,2711,2693,2713,2694,2706,2698,2707,2704,2707,2699,2704,2687,2704,2705,2707,2695,2704,2709,2694,2708,2707,2704,2719,2693,2705,2705,2709,2706,2705,2693,2704,2725,2701,2719,2698,2704,2706,2705,2715,2701,2715,2696,2713,2703,2704,2698,2706,2693,2704,2718,2702,2713,2699,2697,2690,2711,2718,2706,2715,2702,2699,2705,2723,2699,2714,2702,2718,2700,2703,2704,2709,2704,2688,2704,2717,2704,2721,2688,2699,2722,2700,2715,2699,2704,2682,2704,2698,2705,2721,2704,2688,2710,2694,2714,2693,2706,2701,2727,2699,2711,2703,2704,2698,2697,2702,2721,2700,2706,2706,2704,2714,2720,2704,2706,2690,2722,2704,2704,2702,2701,2706,2698,2709,2715,2698,2695,2723,2714,2693,2722,2704,2679,2691,2729,2702,2717,2705,2698,2701,2711,2709,2702,2711,2698,2687,2711,2715,2704,2699,2693,2693,2694,2705,2709,2704,2707,2704,2690,2709,2701,2709,2694,2698,2716,2704,2698,2718,2709,2711,2687,2706,2698,2704,2705,2699,2704,2701,2715,2709,2704,2699,2707,2706,2703,2691,2711,2704,2704,2704,2694,2704,2709,2710,2705,2710,2694,2705,2704,2691,2711,2698,2714,2701,2694,2721,2704,2701,2693,2707,2685,2715,2704,2698,2716,2705,2683,2704,2689,2704,2721,2702,2705,2692,2715,2708,2704,2695,2718,2704,2701,2696,2720,2709,2703,2686,2715,2692,2710,2710,2703,2713,2714,2695,2704,2699,2696,2711,2704,2699,2698,2691,2706,2704,2697,2698,2700,2713,2681,2694,2714,2704,2718,2701,2704,2683,2688,2714,2703,2706,2695,2699,2704,2712,2705,2705,2704,2704,2704,2694,2707,2702,2709,2699,2703,2719,2704,2702,2703,2707,2699,2715,2704,2713,thumbup
2704,2707,2709,2690,2706,2719,2711,2684,2704,2703,2707,2694,2725,2689,2708,2701,2710,2704,2715,2702,2689,2711,2704,2699,2714,2722,2697,2704,2699,2703,2710,2716,2704,2702,2694,2721,2720,2704,2701,2694,2711,2709,2704,2693,2703,2717,2704,2699,2702,2690,2705,2704,2698,2695,2710,2698,2718,2706,2713,2701,2685,2709,2704,2698,2697,2719,2704,2690,2711,2699,2704,2718,2688,2704,2701,2706,2704,2708,2717,2697,2710,2699,2710,2694,2710,2695,2699,2713,2706,2704,2689,2705,2704,2704,2698,2711,2698,2693,2701,2714,2714,2704,2709,2704,2697,2691,2723,2710,2697,2683,2714,2704,2699,2697,2702,2717,2710,2706,2697,2695,2703,2704,2702,2706,2697,2716,2700,2691,2714,2709,2704,2693,2694,2706,2709,2704,2699,2718,2706,2699,2721,2704,2707,2698,2715,2687,2698,2721,2704,2725,2709,2689,2707,2691,2710,2707,2693,2706,2698,2707,2693,2704,2708,2702,2710,2698,2714,2696,2693,2706,2697,2714,2695,2707,2711,2690,2707,2689,2709,2706,2702,2691,2724,2701,2711,2702,2697,2694,2718,2710,2704,2700,2693,2704,2703,2713,2698,2711,2703,2715,2706,2714,2704,2713,2698,2713,2705,2703,2703,2713,2704,2703,2714,2697,2711,2699,2695,2692,2711,2704,2704,2693,2707,2704,2695,2704,2704,2713,2717,2715,2695,2706,2705,2704,2695,2699,2725,2707,2702,2717,2704,2692,2704,2702,2694,2715,2694,2697,2708,2702,2722,2704,2699,2693,2705,2704,2699,2698,2720,2702,2704,2697,2721,2707,2688,2715,2704,2704,2695,2720,2717,2713,2701,2698,2703,2708,2704,2695,2690,2711,2706,2704,2713,2687,2708,2697,2713,2704,2704,2685,2703,2700,2709,2718,2690,2692,2711,2699,2718,2695,thumbup
2693,2703,2723,2707,2704,2694,2719,2699,2703,2690,2711,2704,2697,2701,2720,2702,2703,2719,2704,2684,2709,2718,2705,2705,2723,2699,2714,2703,2720,2709,2703,2702,2718,2698,2710,2699,2708,2703,2711,2705,2695,2704,2715,2713,2705,2710,2701,2708,2724,2704,2700,2703,2725,2715,2703,2713,2699,2709,2695,2716,2695,2708,2705,2709,2702,2717,2697,2708,2704,2699,2699,2707,2731,2707,2694,2698,2693,2709,2716,2693,2705,2693,2711,2695,2691,2721,2703,2718,2697,2718,2687,2704,2725,2704,2711,2708,2697,2688,2703,2714,2705,2690,2693,2698,2718,2702,2715,2698,2687,2690,2719,2703,2708,2697,2717,2693,2709,2694,2709,2717,2703,2711,2698,2705,2697,2707,2693,2708,2730,2699,2722,2701,2719,2704,2713,2697,2710,2704,2683,2715,2704,2713,2704,2714,2716,2692,2702,2704,2712,2693,2687,2695,2706,2704,2709,2703,2691,2704,2714,2698,2714,2698,2704,2708,2730,2703,2722,2703,2703,2704,2708,2715,2704,2714,2699,2694,2707,2710,2704,2709,2701,2709,2698,2708,2693,2704,2715,2687,2704,2710,2705,2695,2698,2694,2709,2695,2711,2695,2714,2689,2723,2698,2705,2702,2714,2690,2714,2702,2718,2694,2691,2708,2702,2707,2721,2702,2709,2703,2704,2699,2713,2697,2704,2705,2720,2703,2719,2704,2704,2726,2695,2711,2704,2710,2716,2687,2713,2695,2709,2693,2705,2704,2714,2695,2715,2703,2706,2696,2704,2715,2701,2710,2707,2706,2697,2705,2695,2705,2704,2704,2691,2707,2704,2715,2701,2702,2711,2693,2717,2701,2705,2679,2713,2695,2708,2704,2713,2704,2692,2706,2703,2705,2688,2717,2697,2706,2698,2704,2719,2676,2707,2690,2704,2705,2693,2704,2719,2704,2693,2707,thumbup
2703,2705,2723,2702,2722,2704,2709,2710,2711,2711,2704,2718,2715,2704,2715,2717,2708,2704,2703,2709,2711,2704,2703,2704,2679,2706,2718,2707,2701,2704,2709,2690,2716,2693,2713,2697,2720,2688,2719,2702,2720,2695,2707,2705,2704,2709,2704,2709,2688,2720,2703,2709,2702,2711,2706,2698,2704,2694,2715,2703,2699,2704,2724,2703,2723,2701,2697,2709,2701,2710,2705,2717,2693,2715,2698,2709,2703,2713,2693,2704,2719,2703,2716,2699,2695,2689,2715,2700,2714,2701,2681,2704,2720,2704,2719,2704,2721,2704,2719,2699,2717,2699,2726,2698,2707,2695,2708,2699,2700,2691,2711,2707,2697,2705,2695,2699,2703,2714,2701,2717,2704,2710,2714,2692,2706,2717,2707,2701,2719,2722,2704,2704,2688,2709,2723,2703,2722,2699,2691,2704,2704,2719,2704,2717,2697,2705,2709,2705,2698,2704,2707,2701,2709,2704,2709,2698,2690,2704,2706,2714,2704,2710,2710,2683,2706,2710,2710,2698,2699,2702,2699,2705,2710,2704,2706,2710,2694,2720,2703,2711,2701,2692,2714,2704,2717,2699,2705,2723,2703,2701,2705,2721,2711,2689,2705,2704,2722,2704,2706,2698,2704,2692,2714,2702,2698,2722,2701,2709,2697,2717,2693,2705,2704,2715,2695,2710,2695,2707,2700,2717,2701,2716,2723,2701,2714,2698,2711,2704,2721,2686,2704,2720,2704,2716,2691,2698,2716,2703,2722,2703,2692,2715,2706,2711,2704,2715,2704,2703,2705,2709,2701,2707,2683,2707,2693,2704,2711,2703,2705,2714,2703,2708,2705,2718,2685,2706,2720,2699,2720,2704,2710,2693,2724,2701,2721,2700,2719,2697,2721,2701,2718,2700,2718,2703,2721,2703,2715,2700,2689,2703,2721,2698,2711,2693,2722,2702,2700,2717,2704,2723,thumbup
2701,2704,2693,2705,2698,2707,2701,2702,2695,2704,2705,2704,2717,2693,2704,2702,2713,2697,2708,2723,2704,2704,2701,2707,2720,2704,2710,2702,2723,2704,2704,2704,2708,2694,2713,2702,2689,2707,2720,2700,2716,2704,2701,2703,2721,2704,2711,2705,2693,2723,2704,2716,2706,2709,2720,2701,2705,2693,2707,2721,2693,2704,2703,2709,2695,2704,2727,2688,2710,2697,2715,2704,2691,2703,2690,2704,2697,2713,2709,2714,2704,2711,2705,2720,2720,2690,2704,2704,2715,2705,2697,2717,2703,2715,2698,2711,2697,2708,2705,2709,2710,2707,2711,2683,2714,2697,2706,2695,2711,2706,2702,2704,2706,2710,2709,2702,2708,2719,2706,2707,2709,2692,2715,2701,2711,2701,2690,2704,2701,2705,2693,2707,2720,2710,2721,2697,2716,2704,2693,2697,2704,2698,2718,2701,2714,2719,2704,2703,2706,2719,2705,2704,2703,2706,2702,2709,2704,2701,2704,2706,2697,2706,2702,2704,2699,2704,2722,2704,2708,2682,2709,2698,2707,2700,2704,2709,2701,2715,2704,2716,2705,2686,2712,2701,2714,2702,2702,2687,2714,2699,2711,2699,2704,2699,2706,2712,2701,2715,2717,2687,2705,2704,2711,2694,2711,2714,2704,2707,2703,2709,2723,2687,2715,2702,2718,2695,2717,2693,2706,2701,2705,2702,2693,2707,2698,2706,2719,2704,2693,2713,2687,2707,2698,2705,2690,2705,2704,2715,2701,2718,2707,2689,2704,2720,2709,2695,2704,2714,2718,2702,2710,2704,2709,2689,2706,2722,2701,2719,2704,2698,2710,2698,2715,2695,2701,2719,2702,2707,2698,2719,2701,2689,2711,2691,2705,2706,2717,2691,2723,2699,2708,2692,2710,2702,2704,2697,2709,2714,2702,2703,2698,2709,2695,2709,2705,2695,2704,2716,2704,2714,thumbup
2701,2720,2706,2695,2707,2703,2725,2704,2693,2705,2699,2716,2698,2679,2705,2695,2714,2703,2699,2718,2704,2707,2716,2703,2701,2710,2700,2705,2699,2713,2702,2694,2702,2714,2699,2713,2715,2703,2703,2704,2704,2704,2709,2697,2699,2710,2697,2716,2721,2702,2714,2697,2709,2706,2689,2707,2691,2705,2714,2699,2687,2715,2703,2702,2704,2693,2719,2695,2714,2705,2703,2716,2724,2700,2698,2706,2699,2711,2715,2690,2705,2709,2711,2702,2715,2687,2718,2704,2699,2710,2695,2709,2694,2714,2704,2695,2701,2706,2701,2703,2707,2698,2688,2725,2704,2716,2704,2693,2706,2698,2711,2702,2702,2711,2698,2723,2705,2721,2706,2693,2701,2704,2715,2690,2707,2699,2693,2705,2704,2704,2711,2693,2694,2710,2706,2713,2702,2719,2702,2691,2710,2695,2715,2698,2704,2695,2711,2704,2706,2718,2717,2704,2694,2718,2707,2695,2707,2689,2725,2704,2699,2711,2704,2719,2705,2718,2708,2694,2708,2694,2701,2714,2699,2721,2720,2703,2708,2707,2698,2705,2702,2714,2704,2709,2704,2713,2695,2709,2699,2717,2704,2718,2700,2703,2691,2717,2703,2719,2706,2703,2709,2721,2704,2697,2698,2679,2716,2697,2718,2705,2682,2701,2703,2706,2699,2715,2697,2711,2706,2703,2709,2698,2695,2704,2703,2716,2705,2706,2703,2699,2701,2713,2704,2717,2698,2703,2714,2699,2711,2697,2715,2690,2710,2698,2720,2705,2698,2695,2705,2711,2697,2707,2709,2716,2710,2723,2706,2698,2693,2706,2694,2715,2705,2693,2698,2700,2704,2704,2711,2697,2705,2698,2710,2704,2722,2704,2694,2690,2711,2704,2725,2705,2717,2703,2704,2710,2695,2714,2705,2699,2691,2710,2701,2699,2699,2711,2696,2710,2704,2695,thumbup
2697,2711,2699,2709,2705,2698,2701,2715,2704,2688,2706,2702,2703,2710,2703,2699,2710,2695,2697,2705,2704,2707,2701,2721,2727,2704,2704,2707,2698,2719,2710,2699,2725,2705,2698,2705,2711,2697,2707,2704,2704,2710,2704,2710,2701,2714,2703,2713,2725,2704,2723,2704,2723,2705,2693,2710,2688,2710,2703,2714,2701,2720,2716,2703,2713,2697,2695,2679,2714,2701,2722,2703,2704,2693,2706,2697,2709,2698,2706,2689,2724,2704,2721,2707,2704,2687,2707,2699,2715,2706,2714,2699,2704,2702,2694,2705,2719,2689,2719,2704,2713,2705,2707,2705,2703,2705,2704,2715,2704,2696,2704,2699,2714,2704,2695,2697,2693,2704,2710,2707,2715,2692,2704,2699,2717,2704,2720,2700,2730,2705,2693,2713,2700,2707,2704,2720,2711,2698,2689,2704,2697,2718,2698,2720,2704,2690,2717,2706,2718,2710,2704,2694,2693,2707,2699,2720,2698,2703,2714,2699,2716,2706,2702,2698,2704,2695,2719,2704,2690,2698,2706,2709,2694,2717,2690,2717,2705,2722,2707,2694,2704,2704,2711,2692,2713,2702,2707,2704,2720,2702,2720,2706,2690,2709,2701,2717,2707,2698,2704,2695,2713,2703,2708,2704,2704,2694,2702,2695,2716,2704,2721,2694,2721,2699,2697,2703,2725,2699,2715,2699,2715,2704,2701,2701,2711,2693,2709,2698,2707,2701,2713,2702,2713,2703,2693,2704,2704,2699,2707,2703,2714,2718,2714,2694,2711,2693,2697,2699,2718,2701,2711,2701,2704,2703,2721,2697,2718,2699,2729,2689,2722,2708,2701,2719,2713,2699,2711,2703,2702,2711,2699,2707,2702,2705,2698,2709,2718,2686,2710,2704,2702,2706,2697,2699,2705,2699,2717,2704,2704,2705,2710,2713,2705,2707,2710,2711,2705,2705,2706,2703,thumbup
2697,2707,2697,2711,2704,2704,2698,2704,2699,2718,2699,2715,2707,2727,2699,2711,2706,2693,2709,2698,2691,2715,2704,2720,2710,2704,2719,2704,2715,2705,2704,2719,2698,2711,2704,2717,2701,2701,2714,2697,2722,2702,2701,2702,2720,2707,2700,2714,2704,2704,2703,2711,2705,2716,2704,2707,2710,2690,2711,2699,2707,2701,2705,2719,2710,2695,2705,2705,2703,2694,2714,2703,2714,2691,2725,2704,2699,2709,2679,2702,2698,2718,2704,2711,2730,2716,2721,2704,2698,2706,2703,2688,2706,2693,2710,2701,2688,2715,2706,2693,2706,2695,2704,2718,2698,2716,2704,2717,2705,2710,2704,2698,2719,2699,2692,2717,2705,2718,2706,2698,2701,2704,2710,2704,2701,2704,2717,2685,2704,2694,2713,2698,2685,2715,2691,2714,2702,2718,2704,2703,2704,2705,2704,2706,2705,2699,2722,2704,2702,2706,2706,2693,2714,2699,2715,2704,2719,2707,2721,2703,2726,2703,2704,2704,2697,2710,2704,2721,2683,2700,2704,2716,2705,2708,2709,2703,2716,2697,2716,2704,2702,2699,2704,2707,2713,2695,2687,2713,2704,2715,2705,2725,2699,2710,2703,2709,2701,2715,2704,2704,2719,2700,2698,2704,2705,2683,2715,2713,2707,2702,2715,2701,2724,2698,2724,2704,2716,2701,2705,2705,2703,2713,2711,2704,2690,2709,2703,2720,2705,2715,2705,2721,2710,2694,2685,2704,2688,2721,2705,2720,2710,2698,2705,2700,2719,2704,2699,2693,2704,2699,2720,2705,2693,2677,2706,2699,2722,2706,2725,2698,2694,2710,2704,2721,2713,2703,2695,2702,2704,2708,2698,2702,2725,2704,2701,2708,2699,2713,2704,2698,2711,2700,2698,2697,2717,2709,2702,2719,2690,2705,2699,2720,2705,2721,2701,2714,2706,2719,2704,2704,thumbup
2704,2707,2713,2710,2711,2702,2709,2699,2713,2706,2709,2699,2701,2698,2723,2704,2703,2711,2707,2695,2717,2705,2701,2713,2687,2704,2701,2709,2700,2710,2715,2695,2715,2705,2702,2711,2704,2694,2707,2718,2704,2702,2710,2688,2729,2704,2699,2715,2704,2704,2693,2717,2706,2698,2704,2698,2701,2693,2720,2701,2704,2688,2711,2704,2724,2704,2721,2705,2693,2704,2695,2711,2697,2697,2703,2707,2702,2719,2689,2723,2704,2693,2718,2699,2717,2698,2726,2709,2702,2717,2694,2698,2698,2693,2699,2693,2710,2704,2726,2705,2702,2713,2688,2704,2701,2694,2705,2698,2702,2701,2705,2710,2711,2703,2694,2710,2701,2710,2704,2693,2679,2711,2702,2713,2704,2719,2706,2704,2723,2704,2704,2706,2703,2695,2704,2694,2717,2703,2706,2690,2704,2709,2701,2715,2703,2699,2702,2711,2701,2717,2704,2687,2709,2712,2710,2704,2698,2713,2719,2709,2703,2712,2713,2694,2704,2694,2697,2718,2704,2691,2701,2719,2718,2715,2703,2704,2704,2701,2702,2694,2716,2704,2710,2701,2704,2698,2704,2711,2693,2709,2701,2715,2703,2720,2704,2704,2703,2720,2704,2699,2707,2695,2722,2704,2709,2682,2720,2703,2694,2709,2697,2710,2701,2693,2719,2703,2721,2704,2707,2710,2706,2703,2713,2704,2711,2699,2704,2710,2697,2705,2699,2701,2699,2698,2707,2690,2717,2697,2720,2704,2705,2699,2703,2706,2698,2716,2701,2708,2719,2706,2706,2704,2718,2704,2723,2704,2694,2711,2709,2704,2705,2707,2703,2717,2701,2681,2713,2702,2714,2702,2690,2714,2688,2707,2698,2720,2698,2707,2705,2718,2704,2698,2706,2697,2709,2699,2721,2705,2709,2703,2700,2704,2701,2711,2701,2709,2704,2705,2697,2709,thumbup
2700,2699,2704,2711,2707,2699,2700,2695,2713,2698,2710,2695,2710,2695,2721,2703,2725,2706,2705,2689,2719,2703,2713,2706,2717,2693,2713,2693,2711,2699,2705,2691,2714,2697,2718,2704,2704,2689,2704,2701,2717,2703,2690,2697,2702,2700,2715,2698,2703,2710,2704,2697,2707,2703,2707,2694,2714,2700,2704,2703,2717,2683,2718,2704,2697,2704,2706,2697,2704,2708,2697,2706,2698,2688,2714,2703,2718,2711,2704,2703,2704,2706,2704,2721,2709,2702,2718,2705,2695,2705,2721,2692,2708,2711,2699,2717,2704,2714,2703,2693,2711,2704,2695,2699,2711,2701,2711,2698,2703,2699,2703,2709,2702,2715,2701,2727,2704,2698,2719,2704,2682,2695,2695,2713,2704,2718,2719,2691,2702,2709,2700,2709,2721,2698,2709,2706,2701,2710,2704,2699,2719,2697,2711,2702,2684,2711,2699,2713,2697,2717,2725,2697,2722,2706,2702,2717,2695,2704,2695,2710,2704,2718,2701,2702,2704,2707,2703,2714,2699,2716,2704,2720,2709,2701,2691,2704,2715,2704,2720,2707,2692,2704,2704,2720,2705,2695,2679,2701,2702,2716,2704,2701,2699,2706,2704,2722,2709,2699,2704,2704,2704,2716,2704,2704,2719,2699,2703,2707,2704,2714,2682,2707,2702,2711,2704,2723,2704,2693,2715,2698,2721,2707,2681,2702,2701,2718,2704,2700,2717,2695,2717,2703,2698,2711,2698,2687,2702,2704,2707,2699,2691,2705,2705,2693,2707,2695,2704,2686,2706,2698,2710,2704,2704,2688,2707,2693,2714,2694,2699,2687,2706,2700,2718,2704,2704,2688,2723,2706,2697,2716,2698,2691,2713,2704,2694,2711,2704,2705,2711,2697,2713,2700,2680,2705,2693,2717,2704,2703,2688,2720,2709,2719,2707,2697,2713,2689,2704,2700,2714,2704,thumbup
2696,2707,2703,2719,2701,2715,2683,2714,2719,2705,2706,2704,2688,2709,2702,2705,2706,2706,2714,2689,2705,2705,2717,2698,2704,2709,2694,2717,2704,2715,2713,2685,2713,2700,2715,2707,2695,2706,2704,2702,2708,2701,2702,2710,2689,2715,2709,2701,2706,2698,2719,2699,2717,2706,2705,2699,2720,2704,2720,2707,2723,2689,2714,2705,2702,2723,2714,2694,2713,2707,2706,2718,2704,2704,2705,2705,2703,2706,2707,2693,2706,2699,2722,2704,2713,2690,2722,2702,2704,2710,2701,2713,2708,2716,2710,2704,2698,2711,2695,2710,2711,2698,2699,2698,2701,2717,2704,2703,2698,2709,2704,2707,2708,2702,2702,2690,2716,2700,2714,2719,2694,2713,2702,2704,2704,2721,2693,2715,2697,2711,2702,2722,2720,2701,2731,2701,2721,2701,2713,2694,2710,2695,2715,2699,2703,2715,2703,2707,2703,2715,2705,2706,2691,2719,2709,2701,2714,2683,2718,2703,2719,2709,2687,2711,2691,2708,2699,2718,2694,2709,2703,2706,2715,2703,2725,2703,2718,2702,2705,2715,2703,2708,2714,2702,2721,2706,2687,2714,2698,2718,2707,2704,2688,2689,2713,2698,2712,2706,2724,2688,2716,2709,2704,2708,2699,2710,2722,2711,2705,2700,2699,2704,2706,2704,2704,2719,2715,2699,2709,2718,2705,2698,2725,2695,2714,2709,2703,2717,2722,2705,2726,2704,2703,2714,2717,2692,2716,2703,2718,2701,2697,2704,2704,2710,2698,2705,2695,2704,2703,2706,2715,2704,2696,2705,2719,2704,2725,2704,2714,2700,2706,2698,2720,2705,2702,2710,2703,2701,2726,2704,2702,2704,2706,2704,2718,2700,2704,2704,2721,2704,2703,2722,2710,2686,2715,2704,2702,2719,2705,2709,2703,2714,2703,2714,2697,2714,2691,2722,2704,2714,thumbup
2723,2702,2713,2698,2721,2701,2724,2690,2707,2709,2707,2705,2701,2703,2704,2703,2721,2701,2715,2701,2701,2720,2703,2719,2702,2698,2705,2702,2714,2699,2714,2704,2704,2719,2701,2716,2704,2704,2717,2704,2719,2704,2701,2704,2705,2706,2704,2707,2709,2721,2693,2719,2702,2713,2714,2706,2701,2719,2703,2717,2693,2710,2704,2710,2702,2721,2725,2694,2709,2715,2704,2709,2710,2702,2698,2720,2704,2704,2726,2709,2700,2715,2704,2704,2710,2695,2698,2720,2703,2715,2719,2703,2699,2719,2702,2704,2701,2708,2707,2709,2704,2719,2707,2706,2710,2702,2722,2704,2709,2704,2711,2704,2704,2719,2724,2692,2720,2701,2721,2699,2707,2690,2722,2698,2726,2703,2707,2688,2718,2701,2722,2699,2698,2704,2704,2711,2700,2704,2704,2689,2718,2707,2698,2717,2686,2715,2706,2723,2704,2702,2726,2691,2710,2701,2717,2706,2721,2704,2722,2704,2719,2707,2688,2709,2703,2710,2698,2718,2689,2711,2694,2717,2704,2695,2704,2704,2703,2714,2703,2720,2721,2691,2715,2702,2711,2710,2687,2723,2704,2722,2706,2714,2695,2713,2704,2719,2707,2708,2721,2704,2717,2704,2703,2718,2701,2708,2703,2718,2699,2721,2714,2694,2713,2713,2703,2722,2705,2697,2703,2720,2702,2717,2703,2723,2704,2715,2711,2703,2710,2704,2709,2714,2704,2718,2683,2717,2704,2701,2715,2704,2695,2722,2695,2716,2702,2713,2720,2704,2714,2700,2708,2716,2702,2688,2719,2704,2710,2703,2711,2710,2711,2710,2703,2716,2704,2696,2704,2717,2695,2719,2711,2704,2705,2694,2721,2703,2705,2704,2699,2711,2715,2701,2700,2703,2699,2699,2717,2704,2720,2693,2717,2707,2704,2721,2715,2702,2714,2696,2718,2714,thumbup
2714,2715,2693,2719,2711,2700,2719,2695,2724,2699,2707,2720,2720,2690,2714,2706,2702,2719,2695,2716,2703,2703,2724,2705,2707,2704,2704,2700,2722,2704,2706,2693,2719,2703,2704,2719,2699,2688,2699,2711,2702,2717,2711,2701,2713,2704,2710,2701,2692,2704,2704,2704,2704,2709,2707,2693,2717,2699,2724,2703,2691,2709,2715,2703,2709,2699,2697,2704,2707,2708,2703,2713,2711,2690,2715,2704,2702,2708,2703,2716,2706,2700,2720,2703,2705,2704,2701,2717,2701,2708,2707,2695,2717,2698,2719,2704,2693,2704,2707,2711,2715,2705,2707,2719,2704,2712,2699,2719,2706,2707,2713,2710,2714,2702,2711,2691,2714,2700,2711,2709,2735,2704,2714,2703,2707,2707,2691,2711,2717,2698,2721,2711,2719,2703,2704,2709,2702,2704,2715,2701,2713,2699,2715,2706,2722,2703,2717,2704,2702,2721,2707,2693,2724,2704,2705,2717,2693,2709,2704,2716,2704,2715,2718,2704,2705,2700,2712,2709,2706,2719,2701,2707,2713,2699,2711,2699,2719,2705,2704,2711,2732,2703,2715,2703,2717,2716,2710,2704,2718,2702,2709,2714,2714,2701,2697,2706,2710,2699,2713,2697,2723,2698,2718,2711,2698,2713,2715,2703,2713,2706,2711,2690,2720,2704,2701,2718,2720,2694,2714,2704,2717,2719,2711,2687,2709,2702,2718,2707,2711,2707,2703,2716,2703,2695,2705,2695,2720,2696,2720,2711,2723,2703,2723,2703,2704,2720,2721,2692,2715,2711,2704,2714,2710,2707,2704,2717,2702,2703,2704,2710,2702,2715,2715,2701,2704,2693,2716,2696,2710,2711,2690,2697,2711,2698,2709,2704,2699,2715,2704,2709,2704,2702,2699,2698,2704,2710,2711,2702,2710,2699,2707,2701,2718,2704,2711,2718,2700,2705,2711,2702,thumbup
2709,2687,2714,2697,2715,2698,2688,2713,2705,2711,2704,2709,2704,2710,2704,2718,2704,2720,2706,2700,2702,2706,2715,2702,2697,2687,2721,2704,2713,2704,2689,2705,2697,2715,2705,2709,2708,2702,2721,2697,2718,2706,2706,2706,2706,2714,2704,2711,2703,2707,2702,2715,2701,2721,2704,2695,2704,2703,2720,2704,2702,2719,2704,2701,2719,2710,2681,2707,2711,2718,2704,2698,2704,2704,2717,2703,2720,2710,2704,2704,2730,2711,2704,2710,2707,2690,2711,2707,2704,2705,2689,2707,2711,2701,2717,2719,2719,2687,2703,2718,2705,2700,2691,2704,2709,2703,2704,2717,2689,2704,2715,2700,2704,2715,2709,2704,2707,2717,2701,2704,2702,2702,2704,2706,2717,2701,2695,2688,2731,2704,2713,2708,2717,2703,2720,2699,2711,2701,2699,2702,2704,2703,2704,2707,2703,2715,2706,2697,2702,2722,2709,2708,2723,2710,2704,2701,2694,2725,2701,2704,2721,2704,2699,2701,2699,2704,2702,2706,2693,2691,2725,2705,2704,2709,2719,2688,2710,2714,2704,2702,2698,2702,2697,2697,2703,2704,2713,2689,2704,2700,2716,2718,2702,2705,2701,2717,2704,2715,2703,2704,2704,2714,2713,2703,2704,2705,2704,2715,2705,2701,2702,2704,2710,2720,2714,2704,2699,2699,2721,2710,2704,2699,2700,2704,2704,2717,2717,2704,2707,2701,2705,2696,2700,2705,2695,2711,2706,2707,2700,2702,2693,2719,2704,2704,2721,2701,2705,2695,2704,2710,2699,2711,2717,2702,2726,2704,2704,2715,2720,2704,2726,2711,2711,2707,2718,2704,2706,2698,2704,2698,2703,2707,2698,2709,2718,2699,2725,2716,2705,2703,2704,2701,2702,2689,2711,2706,2701,2707,2704,2701,2709,2702,2723,2703,2715,2707,2704,2701,2722,2715,thumbup
2708,2698,2705,2704,2705,2701,2717,2704,2699,2698,2707,2713,2688,2707,2701,2704,2705,2697,2719,2704,2717,2715,2705,2714,2707,2704,2721,2715,2710,2706,2705,2703,2707,2702,2715,2708,2726,2709,2714,2702,2703,2701,2706,2704,2710,2704,2701,2709,2714,2704,2704,2704,2717,2711,2688,2697,2704,2720,2700,2717,2718,2710,2705,2704,2704,2704,2708,2692,2704,2702,2714,2704,2694,2704,2718,2713,2704,2715,2705,2690,2720,2704,2704,2716,2702,2717,2719,2706,2711,2703,2687,2690,2707,2723,2724,2714,2711,2710,2714,2706,2704,2701,2723,2695,2700,2698,2704,2703,2689,2701,2710,2712,2718,2704,2705,2698,2691,2711,2714,2702,2707,2688,2704,2720,2705,2697,2706,2691,2694,2701,2705,2719,2708,2693,2718,2704,2700,2703,2711,2707,2717,2711,2705,2701,2713,2697,2720,2695,2720,2699,2706,2711,2707,2704,2706,2717,2718,2688,2713,2711,2704,2704,2711,2715,2698,2715,2699,2710,2697,2713,2704,2710,2704,2713,2706,2704,2703,2710,2717,2701,2723,2695,2707,2699,2722,2701,2710,2699,2716,2705,2705,2719,2695,2707,2703,2718,2705,2714,2701,2695,2710,2707,2701,2714,2704,2687,2707,2702,2704,2714,2693,2723,2704,2699,2704,2714,2701,2704,2727,2704,2702,2710,2704,2706,2693,2718,2715,2703,2713,2707,2701,2703,2722,2704,2719,2695,2722,2705,2702,2704,2705,2695,2718,2705,2704,2718,2704,2704,2713,2713,2697,2714,2717,2690,2715,2704,2722,2698,2704,2715,2701,2713,2700,2717,2693,2714,2694,2713,2704,2711,2710,2711,2704,2702,2706,2696,2720,2701,2717,2701,2713,2704,2704,2719,2707,2702,2704,2710,2704,2709,2715,2701,2727,2702,2693,2716,2699,2704,2720,2704,thumbup
2669,2649,2654,2669,2663,2671,2660,2659,2672,2661,2657,2669,2674,2657,2663,2658,2669,2666,2662,2662,2657,2663,2671,2658,2662,2658,2659,2668,2667,2659,2656,2661,2658,2662,2666,2655,2661,2659,2656,2661,2669,2665,2669,2672,2662,2659,2669,2667,2657,2665,2659,2669,2657,2662,2658,2668,2657,2653,2672,2663,2655,2662,2655,2674,2672,2665,2655,2663,2665,2661,2670,2660,2668,2650,2671,2666,2658,2653,2669,2650,2663,2656,2667,2651,2661,2647,2665,2658,2672,2668,2663,2653,2665,2673,2655,2670,2645,2657,2672,2661,2658,2653,2643,2661,2651,2657,2672,2661,2667,2656,2666,2653,2669,2667,2655,2660,2663,2663,2672,2659,2655,2659,2656,2666,2672,2656,2654,2669,2646,2665,2662,2665,2670,2654,2665,2651,2666,2653,2649,2654,2671,2666,2672,2661,2661,2641,2661,2665,2665,2671,2650,2652,2671,2666,2665,2671,2661,2647,2663,2670,2665,2662,2672,2649,2663,2656,2671,2661,2652,2669,2663,2662,2672,2661,2671,2668,2658,2669,2655,2666,2654,2657,2652,2667,2658,2662,2666,2652,2670,2671,2656,2667,2656,2671,2657,2666,2671,2666,2671,2656,2662,2663,2672,2663,2666,2657,2658,2672,2658,2666,2666,2660,2665,2669,2662,2672,2670,2651,2671,2655,2669,2672,2656,2671,2666,2669,2661,2661,2671,2662,2658,2671,2660,2672,2672,2651,2669,2661,2669,2672,2672,2658,2672,2655,2670,2672,2657,2666,2653,2670,2671,2666,2655,2665,2672,2665,2672,2660,2669,2653,2665,2672,2661,2654,2665,2657,2659,2674,2656,2669,2661,2667,2672,2666,2674,2663,2661,2661,2658,2659,2671,2658,2653,2647,2668,2672,2672,2668,2672,2658,2671,2663,2672,2671,2661,2656,2668,2671,2670,2675,thumbup
2672,2667,2671,2672,2665,2667,2662,2672,2671,2660,2675,2667,2668,2667,2672,2670,2665,2672,2672,2663,2672,2674,2662,2672,2672,2670,2659,2666,2672,2656,2672,2672,2666,2672,2673,2661,2687,2654,2676,2663,2666,2669,2655,2663,2672,2667,2672,2672,2669,2658,2663,2673,2663,2676,2660,2657,2670,2659,2671,2656,2671,2667,2655,2669,2667,2668,2679,2663,2666,2665,2672,2672,2642,2662,2663,2663,2670,2674,2658,2671,2662,2669,2667,2668,2658,2666,2656,2666,2672,2670,2655,2651,2672,2658,2672,2671,2666,2642,2669,2666,2663,2671,2658,2671,2669,2671,2659,2672,2672,2651,2677,2663,2676,2672,2647,2663,2667,2666,2674,2651,2665,2651,2662,2672,2670,2672,2671,2662,2663,2658,2666,2670,2659,2672,2672,2660,2670,2672,2658,2664,2674,2661,2679,2664,2659,2671,2671,2671,2674,2665,2673,2672,2666,2669,2656,2666,2670,2668,2665,2657,2675,2665,2672,2667,2672,2670,2682,2667,2662,2666,2667,2657,2671,2666,2653,2667,2654,2667,2672,2659,2665,2655,2672,2672,2663,2672,2671,2659,2674,2670,2662,2671,2672,2672,2661,2671,2661,2667,2663,2673,2672,2655,2669,2670,2658,2663,2663,2665,2672,2667,2669,2651,2672,2670,2667,2672,2659,2670,2661,2675,2655,2672,2661,2672,2667,2654,2676,2664,2663,2666,2664,2658,2672,2663,2655,2677,2654,2669,2671,2663,2672,2651,2667,2671,2666,2674,2658,2672,2654,2663,2673,2656,2666,2673,2663,2676,2661,2668,2663,2651,2672,2658,2673,2670,2666,2652,2669,2673,2664,2668,2674,2670,2662,2671,2671,2659,2658,2654,2666,2675,2661,2667,2661,2646,2659,2672,2663,2669,2667,2662,2665,2659,2672,2672,2672,2669,2672,2658,2672,2672,thumbup
2654,2657,2641,2659,2643,2659,2663,2647,2646,2646,2647,2651,2652,2647,2650,2640,2657,2653,2655,2645,2653,2658,2661,2650,2654,2643,2647,2654,2646,2661,2647,2641,2653,2654,2656,2646,2643,2661,2645,2655,2653,2659,2647,2651,2662,2644,2658,2645,2641,2643,2645,2658,2651,2658,2658,2640,2640,2655,2652,2658,2653,2646,2657,2646,2663,2657,2647,2641,2661,2640,2655,2643,2655,2640,2659,2647,2657,2655,2643,2641,2653,2651,2655,2643,2646,2640,2661,2647,2659,2654,2640,2645,2645,2654,2641,2655,2655,2641,2654,2650,2657,2643,2651,2650,2654,2646,2643,2649,2646,2647,2650,2662,2659,2645,2656,2651,2661,2658,2658,2646,2643,2640,2646,2658,2655,2655,2633,2645,2650,2645,2649,2658,2640,2640,2662,2655,2667,2653,2655,2647,2653,2645,2661,2640,2656,2642,2658,2645,2657,2647,2640,2638,2638,2662,2659,2655,2657,2640,2643,2658,2653,2649,2638,2644,2647,2653,2643,2659,2642,2640,2650,2658,2650,2661,2644,2640,2640,2651,2662,2655,2643,2640,2649,2656,2655,2652,2646,2650,2658,2649,2656,2657,2641,2639,2663,2651,2655,2650,2658,2640,2656,2657,2652,2647,2655,2640,2651,2658,2661,2653,2657,2655,2640,2658,2642,2660,2642,2642,2643,2656,2651,2661,2655,2646,2655,2659,2659,2646,2645,2647,2642,2651,2647,2656,2641,2651,2647,2655,2661,2641,2631,2642,2650,2653,2646,2658,2645,2651,2658,2653,2640,2659,2647,2640,2663,2645,2661,2655,2644,2651,2649,2652,2646,2654,2663,2638,2655,2655,2663,2653,2653,2640,2654,2653,2663,2649,2640,2639,2640,2661,2661,2654,2647,2643,2643,2643,2657,2658,2655,2640,2651,2652,2651,2668,2626,2661,2651,2649,2659,2659,thumbup
2642,2639,2654,2653,2653,2643,2652,2653,2657,2656,2650,2643,2655,2640,2661,2643,2663,2646,2652,2643,2652,2647,2652,2650,2643,2655,2655,2659,2655,2662,2653,2650,2635,2657,2657,2657,2653,2640,2653,2640,2661,2642,2654,2641,2640,2666,2655,2657,2651,2628,2654,2645,2660,2650,2646,2643,2642,2654,2650,2656,2645,2659,2661,2659,2642,2661,2672,2655,2662,2645,2646,2663,2653,2642,2640,2659,2659,2655,2650,2659,2656,2645,2659,2661,2652,2646,2651,2657,2655,2646,2639,2660,2653,2644,2646,2660,2651,2643,2654,2654,2640,2658,2642,2643,2641,2641,2666,2658,2649,2650,2653,2653,2653,2655,2649,2634,2655,2642,2661,2656,2638,2657,2647,2650,2654,2654,2660,2646,2658,2654,2653,2645,2646,2646,2647,2655,2646,2658,2642,2643,2651,2641,2656,2654,2658,2645,2641,2640,2663,2657,2640,2653,2655,2651,2657,2657,2651,2640,2661,2642,2661,2645,2644,2645,2655,2644,2654,2659,2649,2637,2655,2658,2653,2660,2640,2658,2660,2653,2653,2649,2651,2656,2646,2651,2647,2647,2637,2654,2660,2651,2649,2651,2666,2640,2647,2654,2653,2653,2637,2643,2656,2650,2663,2659,2634,2645,2651,2650,2641,2647,2640,2638,2658,2652,2655,2645,2640,2642,2657,2657,2653,2647,2666,2661,2659,2641,2662,2643,2644,2647,2640,2656,2660,2650,2650,2655,2656,2656,2655,2655,2656,2644,2651,2662,2643,2658,2646,2641,2661,2654,2654,2651,2655,2653,2654,2657,2653,2653,2645,2644,2651,2647,2646,2640,2649,2647,2658,2659,2655,2660,2641,2633,2659,2651,2658,2644,2655,2658,2651,2655,2647,2662,2641,2640,2647,2653,2650,2657,2645,2647,2656,2655,2653,2650,2667,2643,2646,2659,2655,2661,thumbup
2661,2655,2651,2655,2661,2656,2647,2638,2655,2653,2650,2657,2638,2643,2645,2659,2652,2658,2643,2635,2658,2659,2657,2653,2653,2655,2647,2645,2652,2655,2640,2651,2640,2655,2661,2653,2640,2645,2650,2653,2659,2653,2640,2651,2640,2657,2659,2651,2646,2644,2651,2653,2659,2661,2642,2654,2641,2658,2655,2662,2640,2647,2647,2655,2641,2655,2657,2647,2649,2656,2657,2659,2642,2656,2645,2640,2658,2650,2639,2647,2646,2647,2645,2659,2670,2644,2658,2653,2658,2651,2640,2653,2655,2654,2651,2650,2650,2658,2649,2651,2644,2659,2641,2645,2657,2650,2657,2651,2655,2645,2647,2655,2641,2652,2641,2661,2647,2647,2654,2657,2641,2655,2652,2649,2642,2654,2646,2661,2643,2656,2661,2655,2642,2659,2654,2655,2652,2659,2657,2640,2655,2644,2658,2647,2645,2643,2655,2651,2643,2651,2661,2650,2659,2649,2646,2658,2642,2655,2647,2651,2663,2651,2638,2657,2658,2645,2654,2655,2640,2638,2651,2645,2658,2654,2643,2643,2647,2655,2650,2657,2641,2645,2646,2653,2654,2647,2639,2641,2650,2651,2663,2650,2651,2643,2658,2643,2654,2650,2658,2635,2655,2650,2643,2643,2646,2629,2651,2652,2649,2644,2631,2650,2652,2653,2646,2656,2643,2650,2655,2643,2645,2660,2659,2645,2663,2647,2661,2647,2647,2642,2662,2655,2656,2649,2640,2640,2641,2649,2655,2656,2646,2657,2647,2656,2641,2655,2650,2653,2650,2653,2653,2642,2640,2658,2642,2654,2647,2655,2640,2651,2640,2653,2650,2661,2647,2639,2649,2657,2655,2657,2650,2646,2645,2657,2644,2661,2641,2640,2642,2655,2656,2650,2647,2643,2656,2645,2659,2646,2653,2644,2653,2649,2657,2646,2640,2643,2640,2655,2646,2659,thumbup
2651,2654,2650,2656,2655,2662,2646,2654,2654,2658,2641,2658,2653,2651,2663,2643,2658,2655,2657,2651,2649,2642,2657,2649,2649,2646,2660,2650,2659,2646,2645,2640,2646,2640,2658,2643,2644,2639,2656,2655,2653,2649,2649,2647,2661,2641,2663,2658,2645,2633,2657,2650,2663,2655,2647,2654,2645,2653,2657,2652,2642,2654,2646,2644,2658,2661,2665,2642,2657,2642,2658,2653,2640,2640,2657,2647,2658,2645,2651,2657,2652,2657,2659,2658,2650,2657,2653,2650,2649,2661,2646,2646,2663,2645,2656,2660,2663,2635,2653,2643,2659,2646,2659,2637,2655,2656,2657,2662,2646,2643,2645,2651,2660,2655,2655,2654,2663,2650,2649,2651,2655,2645,2659,2645,2662,2656,2661,2640,2654,2643,2661,2647,2643,2637,2655,2640,2655,2647,2640,2647,2654,2646,2655,2655,2656,2649,2653,2655,2649,2657,2647,2641,2654,2640,2656,2643,2643,2649,2658,2661,2655,2656,2631,2657,2653,2657,2647,2659,2662,2638,2650,2647,2656,2651,2643,2646,2640,2657,2655,2663,2653,2645,2657,2653,2654,2658,2645,2653,2641,2650,2647,2654,2653,2655,2651,2662,2649,2658,2662,2643,2660,2642,2662,2653,2654,2641,2658,2647,2655,2642,2640,2641,2652,2655,2655,2659,2656,2635,2656,2645,2660,2661,2635,2646,2647,2651,2653,2656,2639,2642,2656,2653,2652,2643,2651,2659,2651,2650,2657,2655,2649,2659,2641,2656,2653,2659,2635,2646,2642,2653,2651,2661,2652,2634,2656,2653,2656,2654,2641,2647,2651,2651,2647,2660,2640,2640,2642,2647,2661,2656,2655,2640,2655,2641,2657,2642,2637,2642,2652,2656,2646,2660,2645,2650,2652,2654,2656,2655,2640,2646,2640,2655,2643,2660,2640,2642,2654,2653,2661,2659,thumbup
2650,2640,2650,2652,2643,2657,2645,2650,2653,2651,2653,2663,2641,2641,2662,2647,2661,2650,2635,2650,2656,2660,2646,2657,2662,2643,2650,2659,2655,2650,2651,2642,2659,2640,2659,2646,2640,2639,2662,2651,2645,2658,2655,2640,2662,2650,2665,2651,2657,2655,2655,2658,2655,2659,2640,2655,2657,2653,2659,2652,2638,2651,2653,2649,2661,2649,2663,2637,2663,2655,2659,2649,2654,2643,2655,2657,2640,2656,2661,2640,2651,2658,2646,2655,2651,2659,2640,2657,2645,2662,2640,2653,2669,2645,2658,2655,2657,2640,2658,2647,2657,2651,2639,2640,2642,2655,2646,2663,2665,2649,2641,2658,2657,2665,2666,2631,2649,2641,2659,2659,2652,2641,2646,2641,2655,2647,2666,2635,2645,2658,2659,2646,2641,2644,2645,2666,2646,2659,2646,2649,2654,2651,2647,2657,2638,2650,2642,2659,2647,2663,2646,2658,2646,2654,2647,2659,2651,2666,2647,2660,2654,2659,2650,2652,2641,2655,2647,2660,2640,2645,2643,2658,2651,2661,2649,2659,2651,2660,2642,2662,2658,2643,2659,2652,2659,2658,2651,2641,2650,2657,2642,2655,2660,2640,2653,2652,2654,2656,2661,2651,2646,2654,2659,2660,2663,2642,2665,2647,2661,2652,2651,2653,2643,2656,2649,2658,2653,2634,2643,2661,2658,2643,2640,2649,2655,2654,2645,2659,2654,2653,2640,2659,2643,2657,2654,2646,2656,2649,2659,2655,2653,2642,2651,2658,2663,2657,2665,2640,2663,2646,2653,2659,2656,2654,2640,2653,2651,2654,2647,2641,2651,2643,2661,2651,2640,2657,2655,2655,2653,2653,2653,2651,2647,2652,2663,2651,2646,2654,2641,2655,2660,2651,2646,2646,2657,2650,2650,2655,2646,2637,2649,2647,2663,2649,2642,2650,2654,2646,2659,2651,thumbup
2654,2650,2645,2641,2653,2660,2645,2655,2640,2662,2647,2661,2659,2646,2656,2642,2657,2651,2643,2640,2642,2659,2661,2655,2635,2653,2655,2656,2646,2661,2645,2659,2647,2647,2659,2662,2651,2639,2639,2662,2658,2653,2639,2640,2659,2658,2654,2649,2657,2640,2655,2642,2663,2643,2647,2651,2658,2654,2649,2647,2651,2640,2640,2643,2645,2657,2643,2647,2659,2657,2650,2650,2659,2641,2651,2644,2656,2651,2659,2643,2661,2647,2657,2650,2640,2645,2649,2659,2653,2662,2653,2661,2652,2658,2657,2661,2642,2649,2651,2639,2658,2655,2640,2641,2661,2659,2650,2647,2662,2634,2654,2655,2653,2644,2640,2646,2649,2652,2654,2654,2644,2657,2657,2657,2649,2647,2642,2640,2637,2659,2658,2653,2642,2662,2651,2643,2650,2654,2643,2646,2659,2649,2657,2651,2666,2643,2656,2651,2660,2656,2648,2647,2643,2659,2645,2662,2645,2631,2661,2640,2658,2649,2652,2644,2656,2651,2650,2642,2653,2643,2648,2654,2655,2642,2643,2647,2653,2647,2659,2651,2665,2653,2652,2641,2659,2659,2650,2636,2655,2647,2656,2646,2656,2639,2651,2640,2660,2655,2665,2647,2641,2642,2661,2660,2657,2649,2661,2643,2661,2654,2654,2640,2643,2638,2659,2655,2649,2637,2658,2640,2657,2643,2646,2640,2657,2654,2641,2659,2655,2649,2649,2642,2658,2654,2646,2647,2659,2652,2650,2647,2658,2645,2653,2645,2659,2658,2654,2639,2653,2655,2661,2653,2657,2646,2657,2653,2647,2650,2656,2663,2655,2644,2653,2655,2662,2646,2656,2641,2661,2650,2663,2656,2643,2649,2640,2656,2651,2634,2661,2641,2659,2647,2629,2646,2646,2652,2645,2659,2637,2628,2641,2656,2653,2666,2641,2638,2653,2652,2651,2646,thumbup
2638,2651,2654,2653,2657,2651,2655,2635,2650,2643,2658,2650,2656,2640,2656,2654,2653,2649,2650,2638,2662,2654,2654,2645,2646,2640,2661,2645,2655,2653,2645,2642,2643,2658,2641,2654,2642,2640,2647,2647,2661,2659,2669,2655,2649,2654,2656,2657,2645,2651,2646,2659,2651,2662,2657,2637,2657,2640,2657,2643,2658,2651,2645,2642,2662,2652,2647,2658,2649,2651,2661,2646,2638,2639,2666,2647,2662,2654,2645,2657,2651,2652,2645,2663,2650,2655,2645,2650,2654,2666,2637,2643,2665,2654,2658,2650,2646,2647,2639,2655,2645,2652,2671,2633,2654,2659,2653,2652,2661,2643,2654,2654,2654,2661,2637,2659,2654,2649,2666,2651,2659,2644,2654,2653,2657,2647,2651,2663,2638,2658,2640,2655,2658,2649,2654,2655,2659,2656,2640,2647,2643,2653,2653,2650,2670,2650,2666,2651,2654,2663,2655,2649,2649,2651,2650,2655,2643,2647,2651,2658,2649,2655,2640,2650,2640,2659,2641,2655,2671,2639,2667,2652,2652,2655,2661,2640,2662,2657,2653,2645,2647,2650,2656,2649,2657,2650,2657,2654,2652,2655,2657,2659,2649,2652,2645,2658,2651,2661,2655,2640,2651,2644,2655,2644,2651,2657,2651,2657,2651,2661,2642,2656,2655,2652,2654,2660,2652,2646,2659,2651,2669,2653,2667,2643,2658,2645,2659,2647,2640,2651,2645,2658,2645,2657,2637,2640,2649,2657,2658,2660,2641,2644,2646,2650,2658,2655,2649,2655,2657,2651,2659,2647,2641,2639,2651,2658,2650,2655,2657,2647,2655,2652,2656,2659,2640,2643,2640,2645,2659,2650,2649,2641,2661,2653,2648,2656,2658,2640,2656,2652,2646,2657,2653,2639,2647,2647,2656,2647,2641,2645,2647,2651,2663,2654,2663,2640,2653,2655,2659,2654,thumbup
2657,2646,2657,2646,2659,2654,2651,2644,2654,2649,2659,2656,2640,2657,2652,2660,2650,2667,2663,2640,2661,2642,2660,2653,2640,2647,2655,2649,2654,2651,2658,2665,2658,2646,2651,2656,2660,2640,2657,2653,2651,2656,2656,2642,2645,2657,2659,2656,2656,2637,2665,2642,2657,2650,2652,2656,2653,2659,2647,2659,2659,2645,2661,2657,2658,2645,2630,2640,2656,2647,2646,2654,2650,2639,2661,2649,2661,2643,2657,2641,2654,2651,2657,2662,2656,2649,2656,2647,2660,2647,2649,2658,2643,2654,2649,2662,2642,2651,2653,2654,2659,2653,2645,2639,2657,2646,2659,2651,2644,2649,2643,2657,2647,2658,2637,2642,2645,2660,2650,2656,2655,2639,2644,2657,2647,2658,2647,2650,2663,2654,2659,2652,2651,2659,2642,2656,2650,2653,2654,2654,2654,2654,2667,2654,2645,2651,2653,2650,2658,2659,2640,2653,2663,2653,2665,2654,2657,2639,2654,2650,2657,2655,2643,2641,2645,2655,2651,2653,2636,2657,2640,2656,2645,2657,2647,2663,2645,2657,2655,2659,2643,2643,2661,2653,2647,2655,2642,2659,2643,2657,2657,2657,2643,2639,2655,2646,2658,2651,2646,2646,2661,2657,2647,2659,2651,2640,2651,2657,2649,2655,2649,2642,2650,2658,2653,2646,2639,2642,2643,2655,2647,2660,2659,2651,2666,2651,2647,2655,2642,2640,2642,2654,2647,2659,2658,2638,2652,2656,2657,2646,2657,2634,2656,2645,2656,2646,2658,2637,2653,2655,2656,2643,2658,2640,2666,2651,2645,2654,2633,2653,2666,2651,2659,2643,2642,2640,2640,2662,2651,2658,2645,2643,2655,2650,2658,2646,2645,2637,2653,2647,2659,2651,2643,2655,2663,2649,2655,2657,2646,2643,2661,2654,2643,2659,2662,2651,2661,2650,2651,2654,thumbup
2640,2647,2647,2659,2657,2650,2656,2661,2658,2647,2657,2645,2640,2637,2651,2654,2659,2656,2646,2641,2651,2647,2667,2654,2655,2646,2650,2657,2657,2651,2657,2645,2652,2654,2659,2647,2662,2645,2643,2660,2654,2655,2657,2649,2649,2651,2657,2652,2653,2661,2649,2660,2658,2647,2640,2643,2655,2643,2656,2640,2642,2650,2646,2658,2654,2658,2637,2658,2660,2654,2651,2659,2654,2649,2651,2657,2651,2662,2669,2649,2640,2653,2650,2660,2646,2649,2650,2643,2663,2654,2662,2654,2650,2658,2654,2655,2653,2649,2664,2653,2666,2654,2657,2646,2651,2647,2666,2643,2651,2657,2650,2660,2645,2657,2643,2644,2643,2663,2647,2653,2654,2654,2662,2655,2659,2644,2640,2639,2653,2643,2657,2647,2644,2664,2655,2647,2661,2642,2643,2663,2654,2644,2662,2647,2642,2654,2640,2655,2652,2659,2645,2653,2646,2653,2657,2643,2664,2640,2662,2647,2661,2651,2640,2647,2647,2658,2665,2646,2665,2647,2665,2652,2666,2657,2652,2638,2658,2654,2667,2656,2667,2641,2652,2653,2665,2658,2660,2645,2667,2650,2658,2658,2655,2640,2662,2655,2653,2661,2651,2656,2658,2647,2659,2641,2649,2654,2651,2642,2663,2645,2641,2654,2651,2656,2649,2658,2647,2647,2647,2656,2657,2659,2657,2641,2659,2644,2658,2656,2642,2650,2652,2662,2656,2662,2640,2651,2663,2647,2663,2657,2640,2660,2650,2658,2655,2660,2662,2643,2650,2653,2666,2657,2643,2655,2650,2667,2656,2645,2659,2640,2653,2646,2649,2659,2653,2666,2640,2663,2661,2661,2645,2654,2662,2655,2642,2654,2649,2655,2649,2656,2660,2642,2651,2662,2634,2657,2656,2655,2629,2647,2640,2659,2656,2647,2655,2658,2655,2655,2657,2643,thumbup
2645,2645,2642,2661,2653,2650,2643,2653,2657,2658,2661,2649,2641,2640,2659,2655,2659,2651,2658,2642,2646,2656,2657,2650,2627,2641,2647,2652,2659,2645,2656,2651,2663,2651,2659,2654,2659,2657,2647,2649,2667,2650,2646,2651,2645,2658,2653,2653,2641,2643,2655,2663,2658,2653,2640,2640,2672,2647,2661,2653,2651,2653,2663,2655,2647,2655,2655,2645,2659,2651,2649,2658,2648,2647,2666,2647,2665,2650,2662,2655,2655,2657,2658,2652,2662,2642,2643,2662,2659,2653,2650,2642,2655,2653,2656,2655,2643,2663,2649,2653,2662,2657,2643,2661,2647,2655,2653,2657,2654,2641,2657,2655,2661,2654,2662,2655,2661,2650,2660,2645,2655,2654,2657,2650,2661,2654,2649,2662,2663,2661,2661,2661,2663,2649,2655,2659,2653,2662,2643,2656,2647,2655,2655,2661,2651,2659,2649,2655,2664,2659,2642,2653,2659,2657,2654,2659,2659,2655,2645,2663,2653,2660,2656,2649,2657,2655,2660,2651,2646,2643,2655,2655,2661,2654,2643,2663,2648,2658,2655,2659,2646,2653,2663,2654,2668,2647,2641,2656,2659,2660,2651,2658,2649,2646,2651,2654,2656,2651,2645,2667,2656,2656,2657,2655,2643,2655,2643,2655,2659,2661,2646,2648,2659,2655,2665,2647,2656,2656,2649,2651,2662,2657,2647,2640,2660,2652,2660,2653,2640,2650,2651,2659,2656,2656,2644,2647,2660,2662,2659,2652,2656,2651,2653,2657,2658,2655,2657,2650,2649,2661,2661,2661,2657,2642,2659,2647,2661,2647,2645,2651,2656,2662,2654,2661,2659,2645,2659,2651,2667,2653,2657,2654,2646,2654,2658,2651,2656,2655,2655,2656,2655,2657,2655,2655,2647,2659,2655,2656,2640,2654,2660,2655,2655,2654,2647,2641,2659,2656,2661,2657,thumbup
2649,2654,2653,2657,2662,2647,2661,2644,2666,2645,2662,2650,2655,2644,2653,2655,2660,2647,2645,2649,2665,2656,2655,2655,2651,2649,2647,2656,2654,2653,2646,2643,2658,2649,2667,2654,2643,2650,2654,2651,2660,2645,2650,2657,2655,2655,2658,2653,2663,2657,2658,2652,2659,2654,2641,2640,2659,2647,2665,2649,2662,2648,2655,2651,2658,2655,2634,2650,2659,2660,2653,2658,2647,2640,2647,2658,2659,2651,2640,2641,2655,2656,2667,2655,2650,2647,2647,2655,2663,2647,2635,2647,2651,2653,2657,2656,2640,2653,2645,2656,2659,2649,2667,2640,2654,2653,2657,2652,2667,2637,2660,2643,2669,2654,2645,2652,2642,2649,2662,2655,2637,2644,2655,2651,2663,2659,2647,2645,2654,2654,2667,2653,2654,2647,2659,2649,2670,2649,2641,2657,2647,2661,2656,2657,2653,2653,2655,2655,2667,2646,2661,2647,2652,2665,2655,2656,2651,2646,2647,2655,2660,2651,2666,2653,2661,2654,2661,2656,2647,2651,2661,2655,2669,2655,2656,2645,2651,2659,2651,2660,2663,2637,2661,2657,2656,2654,2651,2650,2650,2647,2663,2647,2645,2652,2652,2651,2651,2657,2645,2645,2653,2657,2665,2655,2643,2656,2659,2655,2658,2644,2652,2651,2658,2651,2659,2646,2640,2647,2653,2656,2661,2657,2648,2659,2640,2653,2659,2662,2649,2642,2660,2655,2660,2643,2657,2640,2653,2658,2663,2661,2651,2642,2665,2651,2666,2647,2645,2640,2646,2658,2653,2655,2657,2641,2661,2648,2667,2650,2653,2638,2665,2651,2661,2661,2657,2662,2655,2659,2655,2658,2647,2649,2650,2658,2654,2658,2650,2663,2654,2659,2651,2661,2659,2650,2663,2651,2663,2655,2647,2657,2662,2654,2667,2659,2646,2660,2653,2660,2663,2649,thumbup
2643,2665,2646,2655,2661,2653,2659,2651,2657,2658,2656,2657,2647,2662,2650,2659,2653,2653,2662,2657,2652,2657,2659,2661,2642,2643,2651,2659,2655,2659,2641,2641,2656,2658,2662,2653,2666,2654,2659,2663,2660,2657,2643,2658,2662,2654,2665,2655,2640,2646,2657,2657,2660,2650,2651,2649,2659,2657,2658,2658,2640,2649,2654,2662,2657,2650,2649,2644,2645,2663,2659,2662,2654,2653,2650,2662,2650,2651,2651,2653,2646,2658,2656,2658,2647,2641,2653,2661,2658,2661,2656,2651,2661,2653,2667,2655,2665,2645,2649,2653,2646,2662,2650,2643,2659,2657,2655,2656,2651,2662,2649,2661,2654,2649,2646,2646,2659,2655,2660,2655,2663,2658,2643,2663,2659,2647,2651,2651,2667,2659,2657,2661,2651,2637,2658,2649,2659,2653,2653,2658,2642,2661,2655,2657,2647,2651,2658,2659,2657,2659,2640,2651,2658,2661,2653,2657,2669,2640,2651,2658,2665,2653,2655,2662,2646,2660,2658,2662,2661,2641,2650,2660,2657,2661,2642,2653,2654,2659,2653,2656,2654,2651,2655,2654,2653,2659,2655,2661,2647,2661,2659,2664,2650,2655,2655,2662,2655,2652,2672,2647,2665,2661,2655,2667,2640,2651,2663,2655,2661,2653,2663,2651,2652,2660,2661,2662,2656,2655,2657,2658,2667,2653,2663,2652,2653,2658,2669,2655,2651,2646,2647,2655,2657,2658,2647,2658,2647,2663,2666,2654,2656,2661,2653,2660,2661,2652,2658,2650,2653,2666,2654,2653,2640,2646,2645,2654,2662,2655,2640,2655,2655,2662,2667,2655,2653,2654,2655,2659,2659,2652,2656,2642,2660,2649,2659,2647,2657,2643,2647,2663,2663,2655,2647,2646,2655,2647,2663,2653,2663,2653,2658,2654,2662,2651,2659,2651,2657,2659,2662,2655,thumbup
2649,2641,2650,2653,2661,2655,2655,2637,2661,2658,2657,2662,2647,2656,2658,2655,2661,2656,2663,2652,2652,2658,2654,2658,2657,2661,2646,2666,2661,2650,2651,2651,2662,2651,2657,2657,2654,2653,2651,2659,2663,2651,2649,2661,2659,2654,2653,2658,2651,2657,2654,2657,2666,2649,2645,2661,2659,2661,2654,2658,2651,2642,2652,2653,2660,2657,2668,2651,2662,2653,2663,2655,2644,2642,2659,2655,2663,2646,2647,2657,2651,2651,2670,2649,2658,2640,2660,2651,2660,2655,2668,2653,2658,2646,2662,2655,2651,2646,2666,2656,2659,2657,2650,2663,2662,2657,2657,2659,2658,2658,2653,2657,2656,2649,2639,2642,2646,2658,2663,2653,2650,2660,2649,2658,2659,2655,2652,2661,2662,2659,2666,2661,2655,2661,2643,2663,2656,2644,2654,2645,2655,2657,2656,2658,2641,2663,2649,2655,2651,2656,2659,2644,2661,2653,2659,2651,2655,2638,2662,2658,2658,2655,2653,2644,2660,2651,2653,2662,2642,2649,2657,2653,2656,2657,2669,2654,2654,2653,2654,2649,2659,2649,2643,2653,2661,2660,2641,2640,2644,2660,2655,2650,2655,2657,2651,2666,2653,2662,2668,2654,2656,2656,2656,2646,2638,2658,2656,2655,2647,2662,2645,2659,2654,2659,2651,2656,2650,2651,2654,2659,2662,2650,2657,2643,2647,2657,2661,2647,2641,2649,2658,2654,2657,2655,2656,2637,2653,2656,2662,2661,2647,2657,2655,2657,2657,2646,2659,2657,2659,2650,2659,2657,2661,2643,2654,2654,2653,2651,2665,2653,2662,2654,2662,2652,2635,2647,2655,2657,2658,2661,2646,2640,2661,2655,2660,2659,2655,2654,2653,2662,2658,2659,2643,2653,2651,2663,2666,2658,2640,2653,2647,2659,2659,2645,2649,2654,2651,2649,2655,2657,thumbup
2656,2650,2656,2661,2654,2656,2663,2653,2656,2651,2663,2658,2647,2638,2655,2653,2653,2649,2638,2656,2655,2661,2662,2645,2658,2634,2659,2659,2653,2653,2656,2650,2643,2661,2660,2647,2646,2640,2655,2660,2657,2650,2645,2656,2658,2654,2665,2657,2640,2657,2647,2659,2657,2650,2655,2637,2651,2654,2662,2654,2650,2640,2653,2650,2658,2654,2660,2639,2663,2657,2663,2658,2645,2645,2661,2646,2662,2651,2650,2662,2651,2662,2653,2655,2642,2643,2661,2651,2653,2649,2646,2651,2643,2659,2646,2658,2642,2657,2647,2659,2656,2643,2645,2650,2653,2642,2658,2647,2641,2642,2658,2647,2658,2651,2643,2647,2651,2660,2655,2641,2656,2642,2656,2657,2651,2654,2653,2639,2654,2645,2656,2646,2666,2647,2655,2653,2643,2656,2653,2641,2657,2657,2646,2658,2645,2649,2655,2653,2655,2656,2643,2655,2649,2657,2655,2643,2641,2647,2643,2645,2659,2642,2654,2657,2644,2658,2650,2662,2640,2642,2647,2646,2653,2642,2654,2651,2655,2657,2650,2656,2653,2641,2651,2656,2652,2655,2650,2651,2640,2654,2645,2653,2647,2645,2651,2657,2657,2643,2661,2633,2659,2650,2658,2649,2644,2665,2646,2645,2665,2650,2656,2631,2649,2656,2656,2647,2639,2651,2656,2647,2666,2652,2649,2651,2656,2650,2659,2654,2640,2658,2656,2645,2655,2643,2659,2654,2653,2657,2649,2655,2655,2642,2662,2653,2659,2649,2650,2639,2651,2657,2646,2658,2651,2647,2649,2664,2651,2642,2641,2653,2656,2655,2650,2654,2669,2657,2643,2658,2643,2657,2639,2650,2650,2658,2653,2639,2640,2637,2657,2654,2657,2653,2657,2629,2659,2658,2640,2652,2661,2638,2659,2651,2655,2647,2653,2661,2640,2654,2652,2655,thumbup
2643,2649,2654,2646,2657,2640,2644,2661,2655,2662,2654,2638,2661,2639,2651,2657,2646,2657,2669,2637,2647,2658,2653,2649,2640,2645,2643,2661,2656,2643,2647,2645,2653,2658,2650,2658,2666,2655,2651,2663,2655,2643,2659,2647,2658,2656,2647,2663,2658,2649,2645,2666,2644,2655,2649,2640,2640,2665,2649,2651,2643,2646,2663,2654,2655,2653,2646,2634,2661,2645,2655,2653,2658,2643,2659,2653,2645,2656,2631,2650,2649,2647,2667,2655,2655,2653,2643,2654,2649,2657,2646,2649,2654,2645,2659,2650,2649,2654,2662,2654,2647,2659,2643,2657,2650,2655,2663,2649,2641,2655,2647,2658,2656,2650,2650,2653,2653,2640,2655,2647,2659,2640,2661,2647,2662,2649,2642,2630,2659,2656,2646,2661,2660,2645,2645,2659,2655,2642,2647,2654,2653,2650,2659,2646,2647,2651,2655,2660,2655,2661,2651,2647,2656,2655,2665,2653,2655,2643,2642,2656,2651,2651,2647,2654,2643,2655,2654,2652,2654,2639,2649,2647,2655,2657,2668,2634,2663,2659,2641,2653,2646,2656,2655,2647,2661,2643,2653,2651,2657,2645,2661,2653,2642,2655,2663,2653,2642,2659,2661,2656,2661,2656,2640,2651,2653,2650,2662,2650,2652,2656,2647,2629,2657,2654,2645,2655,2657,2649,2650,2642,2658,2643,2640,2666,2649,2661,2654,2645,2647,2640,2655,2653,2654,2656,2647,2654,2642,2661,2651,2655,2667,2650,2642,2656,2653,2659,2645,2659,2656,2659,2656,2650,2638,2662,2651,2654,2653,2650,2641,2667,2647,2645,2657,2646,2633,2642,2655,2651,2662,2655,2647,2649,2647,2653,2658,2654,2643,2646,2658,2647,2662,2657,2643,2646,2647,2659,2653,2650,2643,2657,2664,2659,2649,2654,2655,2653,2658,2662,2647,2656,thumbup
2625,2643,2650,2658,2656,2645,2655,2658,2645,2657,2654,2646,2660,2641,2647,2647,2661,2651,2654,2647,2645,2669,2651,2645,2640,2642,2662,2647,2656,2658,2651,2639,2655,2656,2642,2659,2655,2645,2643,2644,2662,2649,2652,2640,2656,2655,2654,2646,2637,2647,2651,2640,2661,2650,2657,2640,2665,2655,2645,2659,2637,2659,2644,2657,2652,2654,2659,2634,2655,2653,2654,2657,2655,2640,2645,2661,2647,2655,2647,2640,2662,2653,2663,2649,2657,2640,2651,2657,2650,2657,2642,2641,2665,2646,2658,2656,2650,2654,2650,2655,2657,2653,2658,2655,2645,2662,2654,2642,2657,2643,2651,2661,2651,2657,2654,2652,2641,2655,2659,2647,2645,2659,2665,2647,2662,2653,2647,2646,2644,2653,2658,2645,2644,2645,2650,2646,2659,2655,2640,2650,2653,2653,2654,2647,2655,2640,2656,2657,2645,2660,2644,2646,2666,2659,2650,2640,2665,2653,2665,2656,2651,2663,2657,2645,2655,2659,2647,2655,2645,2641,2659,2645,2655,2654,2645,2649,2659,2649,2659,2651,2649,2640,2662,2651,2655,2648,2639,2645,2654,2653,2641,2655,2637,2655,2641,2660,2647,2649,2641,2652,2644,2665,2654,2641,2653,2643,2647,2666,2656,2646,2661,2654,2655,2655,2647,2659,2651,2635,2646,2649,2655,2657,2643,2653,2645,2658,2663,2643,2643,2659,2646,2657,2659,2649,2653,2651,2649,2654,2663,2651,2653,2646,2663,2646,2663,2654,2641,2647,2660,2649,2661,2655,2645,2656,2653,2647,2658,2642,2648,2649,2650,2659,2657,2652,2641,2657,2656,2643,2660,2655,2657,2650,2657,2656,2654,2659,2654,2654,2640,2658,2651,2647,2655,2651,2645,2659,2655,2643,2655,2633,2652,2653,2643,2658,2657,2653,2642,2654,2653,2645,thumbup
2663,2641,2661,2657,2640,2654,2649,2640,2649,2662,2653,2640,2645,2639,2658,2645,2653,2655,2649,2655,2647,2646,2661,2647,2641,2646,2659,2657,2647,2661,2636,2650,2643,2653,2652,2643,2649,2638,2654,2657,2653,2657,2649,2646,2658,2653,2644,2655,2637,2649,2644,2661,2657,2641,2631,2645,2650,2660,2659,2643,2646,2650,2657,2656,2652,2657,2654,2650,2640,2657,2647,2658,2652,2640,2642,2645,2657,2642,2655,2630,2662,2655,2641,2659,2656,2654,2640,2666,2647,2654,2640,2650,2657,2650,2662,2650,2661,2647,2651,2657,2656,2657,2649,2635,2656,2647,2659,2647,2645,2641,2651,2660,2641,2658,2643,2642,2645,2661,2660,2643,2644,2652,2640,2659,2654,2650,2640,2646,2642,2642,2658,2645,2647,2645,2656,2655,2644,2654,2657,2652,2640,2658,2653,2645,2656,2645,2670,2653,2643,2663,2650,2630,2662,2651,2650,2651,2642,2654,2659,2647,2659,2647,2647,2641,2643,2662,2656,2653,2647,2654,2641,2662,2650,2657,2661,2646,2663,2650,2659,2651,2640,2663,2655,2657,2641,2656,2647,2654,2643,2642,2660,2645,2650,2640,2654,2641,2654,2654,2656,2640,2659,2651,2661,2657,2654,2638,2659,2655,2645,2659,2657,2650,2640,2659,2655,2649,2638,2651,2647,2654,2661,2645,2633,2657,2653,2661,2653,2643,2643,2655,2641,2659,2662,2642,2659,2639,2651,2661,2655,2655,2650,2640,2659,2654,2642,2656,2662,2647,2647,2641,2657,2653,2650,2643,2662,2645,2655,2655,2658,2647,2660,2659,2649,2657,2645,2646,2657,2660,2639,2657,2659,2631,2665,2655,2647,2649,2659,2635,2650,2655,2640,2653,2629,2646,2645,2662,2654,2659,2652,2664,2651,2644,2655,2640,2640,2663,2647,2643,2657,2647,thumbup
2663,2647,2649,2646,2656,2647,2649,2656,2654,2654,2640,2656,2641,2643,2658,2653,2654,2658,2662,2641,2662,2653,2643,2657,2667,2643,2657,2653,2645,2653,2647,2640,2652,2655,2655,2650,2658,2642,2653,2655,2647,2656,2650,2637,2655,2653,2645,2661,2662,2640,2641,2659,2650,2658,2650,2643,2651,2658,2653,2647,2642,2651,2654,2660,2653,2640,2663,2642,2651,2654,2646,2658,2650,2651,2655,2655,2653,2656,2647,2648,2662,2647,2651,2654,2651,2636,2659,2655,2646,2654,2651,2663,2646,2659,2654,2651,2646,2635,2654,2647,2655,2658,2647,2657,2647,2655,2654,2644,2657,2641,2652,2646,2661,2650,2644,2635,2666,2651,2643,2659,2643,2656,2643,2657,2660,2645,2644,2655,2656,2641,2663,2651,2654,2647,2666,2650,2651,2659,2639,2658,2653,2645,2653,2654,2658,2641,2655,2666,2643,2655,2653,2645,2657,2655,2654,2659,2636,2645,2647,2653,2655,2645,2661,2650,2651,2658,2653,2643,2649,2639,2657,2647,2645,2658,2646,2645,2645,2658,2653,2641,2659,2641,2667,2646,2641,2657,2655,2652,2650,2656,2647,2657,2666,2637,2654,2642,2656,2649,2641,2656,2655,2659,2654,2650,2644,2639,2658,2650,2653,2657,2652,2639,2669,2657,2640,2660,2667,2649,2663,2653,2657,2654,2646,2640,2657,2641,2662,2651,2640,2639,2668,2647,2651,2655,2634,2655,2642,2659,2654,2650,2668,2651,2669,2646,2654,2655,2639,2647,2654,2645,2660,2650,2650,2638,2661,2653,2658,2650,2663,2643,2655,2646,2662,2647,2641,2641,2662,2653,2642,2660,2652,2637,2651,2654,2640,2656,2644,2647,2660,2656,2653,2643,2643,2643,2650,2659,2644,2659,2641,2663,2656,2647,2659,2647,2645,2651,2649,2651,2657,2647,thumbup
2651,2647,2643,2656,2647,2659,2651,2638,2666,2646,2661,2655,2643,2651,2641,2655,2653,2655,2650,2649,2651,2647,2656,2656,2640,2650,2655,2645,2661,2645,2640,2643,2646,2662,2655,2645,2637,2663,2654,2646,2669,2645,2646,2639,2658,2657,2652,2655,2641,2640,2651,2649,2657,2655,2647,2663,2657,2651,2661,2655,2657,2655,2643,2654,2659,2644,2655,2635,2652,2645,2647,2655,2640,2647,2659,2654,2647,2655,2645,2657,2666,2651,2643,2656,2645,2641,2645,2661,2655,2645,2647,2641,2659,2655,2662,2643,2633,2649,2642,2646,2657,2645,2643,2650,2651,2656,2655,2643,2653,2640,2661,2650,2663,2650,2662,2639,2666,2655,2655,2653,2639,2656,2659,2654,2661,2645,2663,2647,2657,2656,2647,2650,2651,2658,2663,2661,2655,2646,2639,2644,2662,2653,2649,2656,2640,2661,2663,2657,2662,2643,2651,2641,2651,2647,2655,2647,2647,2653,2645,2653,2647,2653,2647,2655,2644,2661,2657,2657,2659,2649,2654,2649,2661,2655,2640,2647,2656,2643,2658,2651,2651,2639,2659,2655,2646,2651,2646,2657,2647,2658,2661,2651,2633,2659,2651,2640,2667,2653,2640,2658,2651,2651,2657,2646,2639,2649,2659,2642,2659,2659,2640,2658,2661,2637,2658,2655,2654,2651,2644,2657,2656,2640,2643,2639,2659,2643,2665,2655,2658,2641,2657,2652,2646,2658,2641,2647,2655,2645,2653,2651,2657,2654,2659,2657,2643,2657,2653,2649,2653,2655,2654,2646,2654,2641,2660,2649,2657,2653,2637,2656,2643,2653,2656,2642,2640,2657,2658,2642,2659,2645,2649,2656,2645,2658,2646,2658,2647,2645,2640,2651,2649,2652,2639,2645,2661,2640,2657,2646,2656,2640,2662,2651,2647,2663,2650,2653,2651,2658,2655,2640,thumbup
2659,2655,2663,2642,2658,2645,2660,2639,2666,2651,2649,2659,2655,2641,2667,2647,2651,2646,2655,2651,2657,2659,2658,2644,2667,2639,2661,2651,2650,2661,2649,2640,2655,2643,2665,2650,2658,2661,2651,2647,2651,2647,2653,2630,2663,2655,2652,2659,2642,2655,2645,2658,2655,2647,2639,2631,2654,2656,2650,2650,2653,2645,2653,2659,2647,2652,2657,2651,2651,2654,2651,2654,2647,2639,2650,2657,2650,2645,2663,2662,2651,2647,2659,2649,2650,2640,2656,2654,2654,2653,2641,2647,2641,2659,2654,2647,2642,2643,2661,2653,2655,2649,2666,2643,2655,2654,2645,2657,2650,2642,2651,2659,2646,2654,2651,2646,2656,2651,2643,2657,2658,2651,2659,2656,2651,2659,2647,2637,2656,2644,2666,2655,2642,2655,2640,2656,2655,2641,2670,2640,2653,2650,2650,2655,2657,2640,2656,2656,2655,2653,2651,2651,2653,2653,2649,2661,2640,2653,2657,2646,2657,2654,2658,2640,2666,2661,2662,2651,2649,2647,2663,2647,2657,2656,2657,2640,2657,2653,2663,2659,2653,2642,2640,2657,2655,2640,2651,2639,2662,2646,2659,2650,2650,2657,2652,2646,2659,2651,2655,2640,2655,2655,2655,2657,2649,2640,2661,2653,2648,2656,2655,2655,2649,2642,2649,2640,2654,2640,2659,2656,2640,2657,2646,2647,2646,2656,2656,2642,2640,2640,2657,2645,2657,2655,2650,2643,2645,2658,2658,2642,2649,2646,2657,2652,2647,2643,2643,2657,2644,2659,2656,2641,2653,2650,2658,2654,2651,2653,2656,2635,2656,2641,2658,2656,2655,2650,2645,2653,2661,2642,2641,2653,2654,2646,2662,2653,2637,2655,2651,2661,2651,2651,2640,2640,2657,2642,2660,2651,2650,2643,2663,2651,2658,2655,2640,2626,2655,2654,2657,2655,thumbup
2648,2650,2658,2658,2649,2658,2647,2647,2653,2640,2649,2643,2655,2658,2665,2650,2651,2654,2670,2647,2657,2655,2649,2653,2654,2641,2658,2650,2660,2651,2649,2641,2663,2654,2647,2655,2640,2641,2657,2645,2659,2655,2643,2645,2666,2651,2645,2657,2657,2641,2656,2647,2663,2651,2654,2636,2659,2647,2665,2655,2662,2641,2671,2645,2657,2654,2637,2659,2653,2645,2657,2647,2646,2629,2659,2652,2642,2656,2637,2643,2655,2653,2660,2651,2640,2644,2656,2651,2653,2647,2643,2640,2656,2647,2665,2650,2645,2647,2657,2653,2655,2652,2663,2653,2649,2640,2655,2645,2659,2637,2659,2645,2656,2654,2647,2650,2656,2659,2656,2643,2643,2658,2643,2661,2658,2642,2645,2643,2658,2647,2661,2647,2672,2649,2660,2657,2645,2658,2642,2647,2651,2637,2655,2642,2630,2649,2653,2643,2653,2653,2647,2640,2662,2646,2655,2651,2661,2637,2661,2647,2641,2653,2630,2643,2652,2652,2654,2646,2643,2639,2663,2650,2647,2661,2640,2661,2657,2645,2657,2654,2646,2647,2647,2662,2656,2651,2630,2647,2640,2657,2656,2643,2665,2652,2651,2659,2647,2655,2635,2653,2657,2658,2654,2645,2663,2642,2665,2649,2643,2654,2650,2643,2661,2640,2657,2648,2655,2640,2651,2654,2645,2659,2640,2650,2639,2654,2654,2641,2645,2645,2660,2647,2650,2656,2635,2641,2655,2657,2655,2642,2646,2650,2653,2653,2650,2654,2653,2633,2656,2651,2656,2659,2657,2653,2656,2653,2657,2658,2640,2657,2652,2646,2656,2654,2646,2629,2662,2655,2653,2653,2641,2635,2651,2654,2651,2662,2633,2625,2655,2642,2655,2655,2658,2640,2663,2651,2640,2653,2666,2645,2654,2654,2650,2659,2649,2658,2647,2657,2657,2643,thumbup
2636,2659,2653,2645,2661,2643,2658,2635,2657,2647,2656,2656,2633,2651,2657,2662,2655,2647,2642,2640,2654,2643,2661,2651,2644,2649,2640,2654,2645,2651,2637,2647,2647,2660,2655,2645,2663,2630,2663,2650,2641,2656,2659,2654,2656,2658,2651,2646,2656,2657,2645,2656,2655,2642,2657,2638,2654,2655,2645,2657,2640,2634,2657,2652,2641,2654,2640,2655,2640,2654,2647,2663,2639,2650,2665,2649,2662,2657,2659,2651,2650,2659,2658,2641,2646,2639,2662,2647,2651,2655,2639,2647,2647,2656,2651,2659,2656,2641,2646,2656,2651,2649,2649,2634,2665,2654,2650,2655,2629,2641,2658,2640,2656,2642,2643,2643,2651,2649,2650,2646,2642,2650,2655,2642,2657,2653,2653,2654,2645,2659,2653,2647,2654,2638,2660,2647,2658,2658,2657,2640,2653,2653,2647,2643,2651,2651,2659,2656,2647,2656,2642,2643,2657,2660,2643,2659,2657,2631,2661,2645,2661,2651,2637,2646,2663,2641,2659,2653,2657,2640,2653,2651,2641,2657,2656,2639,2655,2650,2648,2657,2640,2659,2650,2654,2658,2640,2653,2649,2657,2646,2662,2652,2662,2654,2656,2640,2663,2653,2666,2646,2645,2642,2661,2647,2643,2651,2656,2645,2661,2645,2640,2629,2657,2654,2646,2655,2643,2655,2650,2656,2655,2643,2671,2633,2662,2651,2640,2654,2653,2647,2663,2653,2654,2663,2639,2651,2655,2662,2659,2644,2641,2663,2660,2644,2659,2640,2639,2631,2659,2657,2641,2658,2649,2643,2657,2646,2647,2657,2658,2647,2656,2663,2656,2645,2645,2635,2657,2646,2663,2653,2653,2646,2661,2653,2642,2657,2643,2638,2653,2649,2655,2655,2651,2637,2659,2655,2642,2656,2651,2651,2646,2642,2655,2651,2642,2642,2652,2641,2657,2651,thumbup
2662,2640,2648,2656,2650,2644,2641,2645,2659,2646,2658,2651,2650,2667,2654,2643,2657,2658,2639,2654,2646,2647,2658,2656,2639,2640,2655,2645,2662,2649,2650,2642,2661,2654,2645,2657,2661,2646,2659,2654,2658,2656,2637,2657,2640,2655,2651,2645,2651,2661,2640,2657,2649,2641,2655,2660,2655,2657,2649,2657,2661,2657,2665,2652,2642,2657,2653,2647,2657,2646,2657,2646,2656,2645,2642,2660,2657,2642,2649,2645,2649,2651,2644,2657,2647,2650,2646,2658,2651,2654,2645,2656,2652,2647,2659,2657,2646,2653,2651,2649,2643,2662,2640,2650,2655,2651,2654,2651,2643,2659,2642,2665,2654,2659,2672,2645,2643,2659,2653,2656,2643,2650,2657,2643,2658,2651,2657,2652,2645,2642,2659,2649,2645,2644,2656,2640,2659,2650,2657,2666,2645,2660,2655,2645,2643,2646,2640,2655,2658,2645,2667,2663,2645,2660,2656,2642,2659,2662,2646,2652,2663,2650,2654,2641,2663,2654,2653,2659,2657,2653,2653,2655,2642,2659,2646,2661,2653,2643,2662,2647,2643,2659,2646,2656,2656,2655,2647,2640,2657,2645,2655,2659,2642,2657,2654,2655,2654,2643,2655,2642,2670,2654,2653,2650,2631,2643,2650,2645,2661,2650,2655,2653,2658,2653,2641,2658,2650,2663,2645,2640,2655,2649,2654,2647,2653,2652,2647,2662,2663,2640,2656,2657,2650,2657,2652,2642,2654,2655,2647,2658,2644,2646,2651,2645,2655,2645,2641,2660,2640,2657,2655,2655,2657,2640,2651,2646,2655,2657,2640,2640,2649,2657,2658,2649,2644,2658,2655,2647,2659,2649,2646,2666,2653,2653,2659,2649,2639,2653,2641,2653,2659,2647,2640,2651,2646,2654,2654,2661,2640,2651,2656,2655,2651,2654,2663,2643,2662,2653,2642,2660,thumbup
2656,2655,2656,2647,2657,2652,2636,2642,2660,2645,2659,2653,2654,2655,2668,2655,2662,2654,2656,2649,2633,2655,2652,2657,2640,2653,2663,2657,2645,2659,2637,2648,2647,2656,2662,2643,2650,2653,2652,2658,2651,2645,2659,2645,2664,2645,2659,2657,2637,2637,2651,2654,2661,2643,2636,2650,2640,2653,2657,2642,2641,2658,2647,2654,2653,2646,2642,2640,2666,2651,2654,2656,2662,2647,2661,2656,2649,2663,2644,2628,2656,2645,2662,2649,2663,2651,2661,2650,2646,2655,2645,2657,2659,2649,2647,2654,2650,2646,2645,2656,2645,2659,2661,2629,2654,2652,2647,2655,2653,2646,2644,2663,2646,2654,2661,2640,2651,2657,2646,2658,2658,2663,2643,2661,2654,2641,2655,2649,2652,2647,2663,2651,2651,2657,2657,2658,2650,2659,2657,2653,2645,2656,2658,2650,2662,2643,2636,2654,2653,2657,2651,2643,2649,2647,2649,2656,2646,2637,2659,2653,2666,2641,2646,2656,2640,2653,2651,2657,2650,2644,2667,2650,2655,2653,2655,2672,2643,2655,2646,2658,2641,2653,2649,2651,2659,2645,2659,2630,2663,2643,2663,2655,2647,2657,2653,2663,2657,2657,2640,2659,2657,2645,2663,2646,2665,2633,2657,2651,2650,2656,2652,2646,2657,2645,2662,2655,2656,2642,2658,2646,2658,2659,2651,2649,2655,2655,2657,2659,2649,2667,2650,2642,2666,2647,2640,2645,2643,2658,2659,2656,2651,2646,2652,2657,2653,2652,2654,2657,2657,2654,2659,2653,2666,2657,2654,2653,2659,2655,2642,2660,2640,2656,2650,2643,2646,2646,2658,2653,2659,2647,2645,2655,2647,2643,2659,2646,2672,2656,2657,2660,2650,2656,2642,2661,2649,2650,2662,2647,2662,2655,2663,2649,2650,2657,2660,2645,2654,2655,2640,2657,thumbup
2641,2647,2651,2654,2653,2641,2645,2645,2651,2640,2657,2649,2644,2657,2647,2645,2657,2649,2641,2654,2666,2653,2642,2655,2645,2651,2656,2645,2655,2642,2662,2647,2646,2659,2646,2652,2663,2647,2649,2657,2652,2643,2663,2639,2657,2650,2654,2657,2650,2643,2651,2649,2658,2650,2640,2666,2654,2646,2661,2655,2652,2647,2647,2641,2657,2651,2641,2654,2661,2642,2663,2646,2640,2667,2656,2642,2662,2651,2652,2653,2653,2647,2646,2661,2635,2659,2652,2655,2654,2643,2645,2659,2654,2658,2655,2645,2646,2656,2643,2655,2654,2640,2651,2645,2651,2653,2663,2651,2642,2645,2644,2660,2657,2641,2631,2656,2645,2656,2661,2653,2646,2645,2652,2656,2661,2641,2649,2643,2657,2658,2661,2658,2643,2653,2653,2650,2659,2659,2647,2640,2638,2654,2653,2657,2646,2641,2643,2661,2659,2652,2651,2663,2653,2649,2663,2654,2647,2647,2659,2659,2655,2655,2663,2662,2645,2661,2655,2640,2649,2651,2646,2657,2650,2653,2656,2640,2639,2650,2646,2662,2640,2640,2647,2647,2659,2658,2657,2645,2658,2654,2647,2659,2640,2639,2655,2653,2646,2658,2637,2649,2647,2661,2655,2646,2643,2650,2657,2641,2655,2650,2641,2649,2656,2656,2651,2663,2653,2640,2667,2653,2646,2653,2641,2647,2644,2656,2653,2650,2663,2651,2658,2644,2659,2645,2655,2647,2650,2662,2656,2645,2649,2643,2661,2654,2651,2660,2656,2650,2653,2643,2670,2650,2654,2650,2647,2657,2657,2654,2640,2657,2641,2649,2647,2659,2659,2653,2641,2658,2659,2653,2647,2655,2642,2656,2653,2645,2650,2657,2643,2646,2643,2662,2642,2648,2647,2660,2655,2646,2668,2643,2651,2650,2645,2645,2671,2643,2650,2657,2645,2651,thumbup
2646,2649,2653,2659,2651,2640,2644,2654,2654,2647,2661,2651,2665,2638,2658,2652,2642,2657,2639,2667,2651,2645,2659,2651,2654,2634,2663,2657,2659,2655,2645,2640,2646,2662,2650,2649,2654,2651,2654,2647,2655,2651,2645,2650,2649,2655,2665,2651,2640,2655,2645,2655,2650,2655,2647,2640,2653,2648,2643,2646,2642,2657,2662,2644,2661,2647,2645,2640,2635,2640,2659,2656,2657,2646,2651,2659,2665,2651,2642,2659,2654,2659,2656,2645,2667,2657,2653,2655,2651,2651,2655,2645,2640,2658,2654,2655,2657,2647,2641,2661,2654,2650,2657,2643,2645,2663,2661,2640,2657,2654,2657,2656,2655,2647,2653,2644,2661,2652,2649,2657,2645,2654,2650,2640,2640,2662,2651,2669,2650,2647,2665,2661,2640,2650,2663,2645,2659,2656,2649,2661,2658,2642,2657,2653,2655,2651,2651,2656,2653,2661,2654,2655,2657,2650,2664,2656,2647,2657,2653,2653,2656,2651,2651,2649,2652,2662,2657,2651,2629,2653,2640,2656,2658,2640,2645,2651,2653,2657,2655,2647,2635,2631,2649,2654,2653,2661,2666,2647,2661,2658,2644,2665,2670,2653,2653,2658,2649,2658,2672,2645,2645,2653,2653,2646,2657,2644,2661,2661,2648,2660,2640,2643,2632,2661,2643,2654,2645,2653,2663,2655,2653,2661,2668,2647,2661,2656,2659,2659,2659,2647,2651,2659,2663,2651,2647,2650,2651,2654,2650,2654,2653,2658,2640,2657,2652,2647,2640,2635,2653,2653,2661,2655,2647,2650,2643,2659,2656,2652,2650,2641,2661,2654,2659,2657,2645,2646,2648,2646,2658,2658,2653,2650,2663,2654,2651,2657,2655,2642,2647,2647,2663,2654,2665,2645,2661,2655,2645,2659,2638,2650,2646,2654,2658,2657,2655,2654,2652,2651,2654,2647,thumbup
2638,2665,2657,2656,2656,2659,2643,2647,2660,2653,2658,2644,2645,2651,2647,2644,2657,2657,2665,2647,2643,2654,2651,2658,2643,2661,2645,2658,2657,2654,2653,2666,2656,2656,2651,2659,2641,2658,2645,2657,2653,2647,2663,2655,2640,2656,2655,2657,2650,2657,2659,2650,2661,2647,2659,2656,2654,2661,2652,2658,2649,2650,2657,2655,2656,2655,2651,2666,2654,2659,2656,2653,2647,2662,2647,2657,2649,2651,2656,2659,2646,2655,2647,2658,2640,2643,2655,2655,2659,2665,2651,2654,2655,2654,2657,2661,2643,2653,2646,2663,2661,2655,2655,2653,2643,2654,2657,2656,2656,2655,2642,2660,2654,2657,2641,2654,2650,2657,2657,2654,2657,2656,2657,2652,2664,2654,2656,2647,2659,2654,2656,2658,2645,2666,2647,2657,2659,2654,2650,2658,2653,2657,2653,2651,2651,2655,2651,2661,2656,2646,2639,2663,2649,2651,2662,2646,2645,2651,2653,2662,2655,2653,2646,2653,2655,2654,2656,2658,2655,2657,2655,2649,2663,2650,2651,2661,2650,2657,2659,2658,2639,2655,2651,2662,2655,2651,2657,2645,2655,2646,2661,2650,2654,2639,2656,2654,2651,2653,2657,2659,2645,2661,2659,2655,2669,2655,2659,2655,2655,2659,2655,2650,2658,2653,2662,2655,2653,2662,2645,2662,2649,2662,2657,2643,2658,2645,2656,2658,2641,2643,2657,2653,2659,2651,2644,2658,2656,2655,2661,2651,2657,2646,2654,2662,2657,2665,2645,2647,2655,2649,2665,2649,2663,2651,2667,2653,2658,2651,2654,2661,2653,2658,2653,2653,2660,2657,2659,2658,2653,2657,2638,2661,2651,2659,2655,2651,2643,2665,2654,2653,2658,2659,2643,2656,2655,2659,2652,2659,2655,2656,2646,2657,2651,2656,2640,2665,2654,2655,2649,2662,thumbup
2653,2663,2657,2658,2657,2655,2651,2660,2650,2659,2656,2656,2662,2652,2658,2654,2647,2657,2657,2649,2661,2653,2661,2653,2657,2643,2646,2654,2656,2656,2659,2644,2659,2663,2650,2655,2650,2650,2643,2657,2657,2650,2655,2654,2654,2649,2665,2656,2640,2647,2647,2647,2659,2651,2659,2633,2658,2653,2652,2666,2653,2656,2659,2653,2658,2649,2645,2649,2654,2659,2655,2651,2645,2650,2651,2645,2669,2657,2656,2640,2658,2654,2651,2661,2643,2659,2657,2651,2662,2651,2649,2640,2650,2650,2655,2657,2655,2651,2656,2657,2660,2653,2638,2655,2656,2653,2662,2651,2652,2654,2658,2654,2666,2651,2649,2655,2656,2655,2656,2655,2653,2666,2655,2649,2670,2656,2651,2649,2650,2651,2658,2657,2656,2640,2653,2651,2662,2657,2667,2640,2652,2658,2655,2651,2655,2640,2645,2658,2661,2653,2656,2654,2654,2663,2655,2650,2648,2643,2658,2647,2657,2654,2644,2649,2655,2658,2657,2658,2669,2655,2657,2655,2652,2662,2663,2641,2643,2659,2655,2653,2645,2641,2666,2657,2655,2653,2657,2661,2646,2657,2657,2649,2643,2651,2658,2647,2657,2647,2651,2645,2659,2647,2666,2653,2658,2643,2663,2655,2656,2656,2645,2649,2640,2657,2658,2651,2654,2643,2659,2650,2661,2655,2647,2643,2655,2656,2659,2659,2647,2661,2646,2658,2659,2653,2645,2645,2651,2651,2660,2653,2659,2661,2659,2650,2659,2654,2651,2654,2654,2660,2660,2654,2647,2659,2653,2650,2663,2654,2641,2655,2651,2649,2666,2649,2651,2659,2643,2658,2662,2655,2670,2660,2658,2654,2655,2657,2643,2651,2666,2657,2657,2654,2651,2652,2657,2653,2666,2647,2656,2663,2659,2647,2670,2653,2640,2653,2647,2647,2659,2655,thumbup
2667,2650,2661,2656,2660,2657,2640,2657,2656,2657,2657,2655,2671,2645,2647,2656,2650,2647,2655,2650,2646,2651,2665,2654,2649,2655,2658,2653,2661,2654,2665,2643,2650,2658,2659,2649,2641,2642,2653,2664,2655,2654,2645,2646,2655,2657,2650,2665,2646,2647,2662,2651,2663,2650,2670,2657,2657,2647,2661,2659,2663,2654,2658,2653,2663,2657,2662,2658,2658,2649,2661,2660,2662,2645,2669,2652,2658,2657,2660,2647,2657,2659,2653,2656,2668,2640,2662,2651,2653,2656,2660,2650,2649,2650,2667,2649,2660,2647,2652,2655,2656,2654,2649,2669,2653,2659,2662,2651,2645,2658,2659,2658,2655,2661,2645,2654,2649,2651,2660,2649,2651,2645,2650,2657,2656,2651,2655,2645,2666,2646,2657,2658,2657,2659,2645,2661,2658,2653,2669,2647,2663,2654,2653,2663,2649,2654,2657,2657,2647,2656,2671,2661,2654,2656,2651,2659,2655,2650,2647,2656,2655,2657,2662,2655,2661,2651,2656,2657,2650,2653,2660,2662,2661,2648,2659,2647,2659,2647,2658,2647,2655,2656,2663,2653,2659,2654,2663,2643,2657,2652,2658,2657,2653,2642,2655,2654,2650,2660,2662,2643,2651,2658,2651,2651,2662,2658,2660,2655,2658,2654,2650,2672,2665,2646,2661,2655,2665,2655,2651,2655,2654,2657,2642,2643,2661,2656,2659,2654,2656,2646,2661,2653,2658,2656,2662,2659,2655,2657,2651,2656,2641,2651,2645,2658,2657,2647,2660,2659,2657,2652,2661,2650,2639,2649,2655,2651,2659,2651,2650,2660,2645,2663,2663,2650,2663,2652,2659,2650,2654,2656,2661,2640,2662,2657,2659,2662,2662,2643,2654,2658,2659,2656,2651,2656,2655,2661,2657,2654,2647,2651,2653,2665,2657,2662,2670,2659,2654,2661,2655,2656,thumbup
2670,2640,2659,2655,2660,2660,2653,2643,2663,2655,2651,2649,2659,2641,2651,2655,2653,2657,2663,2651,2667,2652,2654,2658,2642,2647,2657,2651,2656,2654,2650,2643,2656,2655,2654,2660,2659,2635,2661,2658,2649,2662,2662,2643,2656,2658,2651,2659,2661,2644,2647,2657,2654,2655,2649,2649,2647,2653,2666,2646,2657,2660,2644,2667,2659,2655,2646,2659,2659,2659,2655,2650,2671,2654,2642,2656,2650,2657,2654,2656,2664,2657,2663,2657,2653,2638,2650,2651,2655,2658,2639,2647,2646,2656,2658,2649,2647,2658,2647,2657,2665,2653,2658,2649,2650,2651,2661,2655,2645,2641,2651,2647,2658,2655,2657,2645,2658,2661,2654,2654,2653,2649,2660,2650,2657,2655,2645,2645,2655,2656,2649,2658,2649,2640,2658,2655,2656,2658,2660,2640,2649,2657,2655,2656,2659,2642,2655,2651,2657,2662,2653,2655,2654,2658,2659,2655,2658,2645,2653,2656,2663,2655,2647,2650,2659,2651,2658,2654,2663,2658,2647,2653,2665,2654,2653,2653,2657,2655,2656,2649,2655,2655,2647,2658,2651,2659,2656,2646,2669,2657,2655,2661,2647,2655,2658,2651,2659,2653,2645,2640,2663,2651,2663,2655,2649,2661,2642,2655,2659,2650,2655,2646,2649,2657,2659,2653,2666,2646,2647,2661,2658,2655,2647,2659,2669,2653,2649,2659,2666,2653,2658,2658,2655,2657,2647,2647,2650,2661,2658,2651,2658,2643,2662,2657,2651,2659,2646,2643,2656,2659,2650,2646,2647,2656,2655,2657,2660,2657,2655,2657,2649,2658,2657,2653,2655,2650,2650,2653,2655,2647,2658,2642,2647,2658,2658,2649,2655,2641,2655,2653,2657,2651,2660,2640,2667,2650,2645,2661,2654,2645,2648,2650,2662,2655,2651,2654,2663,2650,2660,2653,thumbup
2648,2643,2647,2657,2659,2645,2665,2646,2654,2655,2657,2658,2655,2657,2640,2657,2654,2647,2651,2643,2661,2647,2645,2655,2645,2651,2657,2647,2666,2648,2665,2640,2649,2650,2659,2656,2655,2642,2663,2649,2663,2654,2640,2665,2654,2647,2659,2650,2662,2646,2646,2655,2655,2643,2655,2653,2670,2659,2651,2665,2668,2642,2657,2653,2646,2659,2649,2657,2640,2662,2653,2651,2651,2649,2645,2653,2651,2642,2646,2654,2646,2663,2658,2643,2646,2645,2662,2650,2661,2652,2670,2643,2651,2656,2642,2658,2655,2641,2647,2654,2659,2643,2666,2626,2649,2647,2655,2656,2645,2657,2645,2641,2658,2647,2653,2646,2643,2652,2657,2643,2642,2630,2658,2641,2658,2650,2647,2652,2654,2650,2650,2660,2634,2654,2651,2657,2656,2641,2672,2646,2639,2658,2649,2656,2655,2643,2651,2643,2659,2645,2646,2656,2653,2662,2649,2647,2646,2640,2654,2649,2650,2656,2640,2658,2647,2650,2657,2649,2655,2643,2654,2642,2663,2649,2641,2645,2657,2643,2659,2655,2650,2657,2651,2642,2661,2643,2644,2650,2649,2657,2654,2650,2662,2651,2646,2656,2649,2656,2650,2637,2647,2646,2656,2656,2650,2646,2645,2642,2658,2645,2633,2656,2643,2650,2657,2642,2653,2651,2641,2656,2651,2650,2647,2643,2645,2647,2655,2642,2651,2635,2662,2643,2657,2654,2658,2641,2653,2655,2640,2650,2649,2647,2652,2653,2643,2655,2657,2640,2651,2657,2653,2658,2654,2641,2660,2647,2668,2654,2633,2656,2643,2661,2657,2642,2638,2661,2659,2645,2657,2646,2649,2646,2645,2667,2651,2658,2657,2650,2640,2655,2649,2658,2662,2655,2640,2662,2658,2647,2661,2642,2649,2645,2657,2654,2657,2643,2655,2655,2650,2659,thumbup
2647,2643,2657,2646,2661,2653,2666,2651,2641,2654,2658,2650,2638,2645,2654,2640,2653,2645,2652,2646,2662,2647,2650,2658,2652,2658,2653,2657,2667,2654,2657,2643,2642,2647,2650,2647,2639,2637,2654,2656,2656,2650,2655,2661,2659,2661,2660,2655,2640,2660,2651,2658,2660,2651,2647,2654,2658,2654,2654,2661,2651,2659,2660,2653,2662,2653,2644,2640,2647,2651,2646,2640,2645,2635,2635,2651,2654,2658,2649,2657,2651,2659,2655,2647,2643,2652,2644,2644,2647,2656,2645,2649,2651,2653,2653,2640,2655,2646,2659,2653,2649,2651,2666,2643,2654,2656,2645,2656,2650,2646,2658,2641,2655,2643,2669,2640,2649,2655,2649,2658,2649,2657,2658,2649,2661,2650,2641,2640,2655,2647,2662,2657,2641,2647,2658,2649,2659,2655,2663,2643,2640,2640,2651,2651,2649,2635,2666,2656,2663,2657,2653,2656,2643,2650,2660,2650,2654,2644,2647,2656,2662,2645,2655,2655,2647,2646,2650,2641,2659,2643,2655,2647,2645,2656,2647,2638,2640,2651,2661,2654,2643,2657,2651,2640,2663,2651,2649,2657,2655,2649,2640,2654,2671,2642,2663,2653,2647,2659,2641,2647,2638,2645,2655,2640,2641,2662,2655,2661,2658,2646,2644,2640,2656,2655,2641,2658,2659,2651,2651,2651,2659,2654,2647,2647,2651,2647,2649,2647,2655,2662,2643,2655,2655,2662,2658,2647,2644,2640,2669,2659,2660,2662,2659,2649,2655,2658,2654,2641,2655,2651,2662,2661,2651,2641,2649,2655,2661,2650,2657,2661,2651,2646,2655,2643,2649,2650,2655,2653,2641,2658,2658,2640,2659,2655,2662,2654,2665,2643,2655,2646,2648,2646,2655,2657,2653,2650,2649,2661,2641,2653,2660,2652,2653,2650,2642,2653,2662,2642,2665,2654,thumbup
2662,2643,2663,2645,2655,2658,2640,2647,2655,2661,2644,2651,2645,2661,2666,2654,2659,2646,2642,2647,2663,2647,2659,2646,2653,2651,2649,2656,2647,2658,2662,2640,2651,2654,2647,2655,2657,2640,2655,2656,2647,2654,2655,2640,2661,2641,2656,2662,2644,2651,2655,2650,2662,2642,2648,2667,2643,2655,2651,2658,2655,2643,2657,2644,2659,2646,2642,2640,2651,2651,2658,2657,2649,2643,2657,2641,2658,2647,2645,2645,2652,2653,2650,2658,2649,2643,2661,2650,2661,2640,2649,2658,2646,2659,2650,2651,2651,2653,2663,2666,2650,2654,2670,2641,2662,2658,2643,2659,2645,2627,2657,2655,2654,2656,2653,2637,2647,2653,2657,2663,2667,2659,2657,2656,2647,2658,2636,2655,2647,2653,2658,2661,2649,2637,2646,2643,2661,2655,2640,2656,2640,2653,2655,2659,2643,2661,2656,2653,2649,2654,2663,2666,2643,2657,2649,2653,2660,2640,2657,2647,2662,2647,2650,2651,2655,2646,2661,2657,2640,2658,2663,2643,2657,2655,2659,2641,2658,2659,2654,2653,2647,2640,2659,2653,2653,2654,2644,2645,2661,2655,2643,2658,2657,2646,2640,2657,2656,2643,2663,2627,2654,2659,2655,2647,2640,2642,2655,2641,2656,2656,2649,2658,2657,2643,2655,2641,2634,2638,2655,2653,2655,2653,2653,2658,2646,2657,2643,2647,2653,2647,2669,2641,2658,2651,2663,2650,2654,2660,2649,2647,2650,2631,2654,2655,2650,2655,2653,2640,2665,2646,2662,2644,2639,2640,2653,2647,2655,2651,2640,2640,2642,2652,2662,2645,2660,2640,2651,2653,2650,2653,2651,2640,2649,2657,2662,2651,2649,2641,2656,2646,2651,2644,2636,2642,2656,2659,2651,2657,2653,2644,2659,2645,2657,2655,2653,2640,2646,2664,2656,2662,thumbup
2640,2656,2641,2658,2651,2657,2640,2647,2644,2646,2659,2643,2641,2645,2663,2652,2650,2650,2645,2629,2644,2654,2648,2660,2640,2649,2651,2655,2655,2647,2657,2647,2637,2647,2659,2646,2647,2658,2667,2646,2659,2649,2667,2650,2652,2661,2649,2651,2644,2662,2654,2651,2656,2643,2639,2655,2658,2649,2662,2653,2640,2656,2669,2645,2656,2657,2635,2654,2654,2651,2654,2657,2638,2639,2658,2646,2662,2655,2635,2647,2651,2644,2655,2653,2631,2640,2653,2644,2655,2663,2643,2642,2639,2646,2659,2649,2639,2640,2659,2645,2661,2640,2647,2663,2639,2647,2657,2649,2646,2657,2650,2657,2659,2647,2652,2661,2646,2656,2658,2650,2653,2655,2650,2650,2667,2645,2647,2640,2643,2658,2652,2647,2647,2663,2645,2654,2662,2655,2645,2662,2643,2654,2656,2658,2640,2644,2644,2654,2643,2653,2653,2659,2650,2651,2660,2654,2645,2650,2655,2649,2656,2653,2650,2640,2640,2649,2657,2646,2645,2655,2653,2640,2663,2662,2647,2665,2654,2658,2647,2657,2641,2636,2641,2654,2650,2655,2652,2644,2650,2655,2641,2655,2650,2649,2647,2657,2656,2656,2654,2647,2655,2659,2643,2659,2639,2640,2650,2643,2656,2657,2654,2655,2643,2650,2651,2650,2658,2663,2643,2657,2658,2654,2654,2638,2644,2656,2649,2654,2634,2645,2649,2645,2661,2640,2642,2650,2653,2646,2653,2659,2640,2651,2655,2654,2656,2649,2655,2646,2659,2662,2651,2653,2640,2651,2646,2650,2652,2649,2642,2648,2658,2651,2660,2647,2643,2642,2640,2657,2651,2658,2647,2663,2645,2653,2661,2653,2659,2640,2644,2662,2661,2646,2658,2653,2656,2641,2660,2645,2638,2655,2663,2643,2657,2646,2657,2639,2653,2659,2656,2655,thumbup
2640,2640,2656,2647,2657,2653,2650,2651,2652,2653,2653,2653,2667,2635,2662,2659,2646,2655,2656,2640,2653,2657,2659,2643,2634,2641,2655,2655,2655,2661,2636,2640,2657,2643,2656,2656,2672,2640,2647,2653,2651,2658,2639,2642,2643,2642,2650,2656,2655,2651,2645,2651,2658,2651,2646,2640,2654,2640,2649,2654,2637,2646,2651,2650,2655,2642,2653,2662,2655,2645,2663,2646,2650,2647,2646,2651,2656,2640,2643,2641,2643,2650,2661,2643,2657,2645,2663,2640,2663,2653,2654,2663,2651,2658,2649,2655,2633,2639,2659,2654,2655,2665,2647,2641,2650,2646,2657,2655,2652,2640,2651,2653,2646,2649,2645,2652,2656,2641,2654,2658,2645,2637,2650,2657,2647,2650,2657,2647,2643,2655,2649,2649,2651,2657,2641,2658,2641,2655,2658,2659,2643,2659,2661,2649,2653,2640,2661,2657,2652,2661,2634,2640,2665,2653,2657,2652,2661,2646,2647,2658,2657,2654,2655,2655,2653,2657,2651,2649,2650,2630,2654,2655,2647,2652,2647,2640,2645,2651,2656,2657,2657,2646,2647,2658,2651,2655,2651,2654,2648,2662,2652,2655,2667,2649,2653,2659,2649,2654,2658,2653,2651,2650,2658,2662,2640,2654,2665,2640,2651,2655,2651,2636,2651,2657,2653,2657,2654,2640,2647,2655,2647,2654,2640,2643,2656,2643,2654,2655,2635,2650,2653,2663,2643,2654,2640,2649,2644,2651,2662,2643,2645,2647,2655,2643,2657,2640,2659,2657,2637,2645,2661,2645,2658,2653,2654,2655,2646,2658,2647,2651,2655,2645,2649,2658,2640,2642,2647,2657,2659,2643,2650,2653,2659,2651,2658,2651,2647,2657,2660,2656,2655,2657,2656,2644,2640,2656,2647,2651,2661,2642,2649,2651,2665,2645,2637,2649,2643,2649,2661,2652,thumbup
2658,2661,2651,2641,2651,2649,2650,2663,2659,2650,2657,2646,2649,2656,2653,2651,2665,2646,2660,2645,2656,2640,2655,2657,2640,2661,2668,2653,2655,2649,2658,2641,2655,2657,2645,2654,2643,2656,2648,2654,2661,2646,2647,2653,2652,2645,2665,2661,2651,2657,2657,2655,2665,2642,2651,2659,2641,2654,2655,2650,2657,2654,2663,2647,2657,2653,2654,2643,2655,2653,2643,2651,2658,2657,2649,2647,2663,2647,2650,2640,2640,2649,2659,2647,2638,2646,2661,2641,2663,2653,2647,2658,2646,2653,2646,2647,2652,2651,2658,2658,2651,2657,2656,2659,2649,2653,2658,2647,2666,2650,2651,2659,2651,2655,2661,2640,2665,2655,2654,2653,2654,2647,2655,2656,2655,2654,2657,2656,2643,2653,2661,2646,2641,2649,2659,2647,2658,2659,2643,2645,2663,2649,2661,2659,2656,2663,2642,2651,2647,2650,2667,2645,2649,2656,2646,2658,2640,2641,2663,2646,2654,2657,2642,2650,2653,2659,2652,2656,2649,2653,2659,2642,2656,2659,2640,2657,2651,2656,2651,2653,2651,2655,2644,2656,2644,2655,2645,2640,2640,2659,2642,2655,2640,2661,2654,2645,2666,2655,2638,2661,2653,2654,2650,2657,2645,2645,2655,2659,2652,2659,2645,2662,2653,2655,2646,2649,2646,2651,2640,2647,2666,2645,2647,2662,2654,2658,2665,2654,2634,2640,2662,2658,2650,2643,2649,2647,2652,2653,2642,2656,2647,2655,2643,2656,2661,2647,2656,2639,2651,2655,2651,2657,2637,2661,2652,2643,2653,2658,2651,2657,2653,2653,2657,2650,2638,2647,2661,2642,2656,2642,2658,2646,2665,2647,2655,2661,2655,2640,2656,2657,2642,2647,2651,2654,2654,2653,2661,2650,2670,2630,2656,2662,2643,2658,2658,2651,2667,2643,2660,2659,thumbup
2651,2661,2641,2658,2644,2655,2668,2653,2652,2657,2649,2647,2647,2641,2646,2657,2641,2650,2653,2640,2661,2658,2651,2656,2649,2651,2640,2645,2660,2644,2645,2639,2651,2646,2656,2651,2659,2653,2659,2642,2659,2661,2667,2640,2657,2652,2647,2656,2653,2647,2651,2642,2657,2651,2647,2640,2646,2658,2645,2661,2640,2641,2661,2646,2661,2639,2637,2656,2656,2653,2653,2651,2656,2647,2661,2651,2662,2647,2658,2645,2644,2657,2645,2655,2661,2655,2645,2653,2659,2650,2654,2658,2642,2658,2663,2653,2651,2643,2645,2651,2658,2656,2662,2634,2657,2643,2651,2658,2642,2649,2651,2647,2656,2657,2655,2640,2647,2663,2640,2657,2645,2640,2643,2647,2655,2649,2659,2641,2650,2657,2649,2651,2656,2640,2653,2645,2661,2643,2646,2646,2640,2657,2659,2646,2650,2659,2660,2643,2656,2641,2653,2641,2651,2647,2661,2650,2660,2649,2641,2655,2641,2652,2647,2656,2659,2655,2658,2646,2647,2643,2651,2655,2654,2657,2653,2640,2655,2660,2651,2655,2641,2658,2650,2659,2650,2655,2646,2659,2639,2651,2655,2651,2651,2640,2657,2640,2654,2657,2643,2647,2663,2647,2659,2661,2637,2647,2659,2649,2662,2658,2650,2644,2655,2644,2646,2658,2647,2642,2652,2656,2663,2647,2655,2640,2651,2647,2654,2658,2651,2655,2650,2659,2639,2653,2671,2662,2653,2659,2647,2650,2659,2651,2645,2659,2642,2653,2654,2651,2650,2654,2646,2660,2655,2656,2658,2658,2646,2655,2660,2655,2653,2650,2661,2652,2650,2646,2653,2661,2646,2662,2666,2645,2654,2645,2657,2657,2643,2633,2654,2658,2646,2663,2635,2651,2650,2649,2661,2658,2645,2651,2653,2654,2646,2654,2647,2651,2655,2654,2650,2655,thumbup
2654,2647,2655,2652,2662,2656,2641,2633,2660,2653,2649,2651,2652,2652,2658,2659,2652,2660,2663,2646,2645,2649,2655,2665,2651,2658,2656,2647,2661,2662,2646,2655,2647,2655,2653,2647,2662,2646,2653,2647,2659,2649,2651,2647,2663,2651,2657,2650,2669,2642,2650,2654,2645,2652,2657,2645,2653,2653,2661,2649,2645,2661,2662,2649,2659,2659,2663,2640,2652,2659,2650,2655,2666,2641,2657,2649,2656,2642,2640,2643,2657,2647,2654,2643,2659,2633,2651,2641,2654,2657,2643,2643,2641,2654,2659,2649,2651,2634,2654,2658,2660,2657,2663,2631,2647,2649,2659,2645,2655,2640,2655,2659,2656,2659,2667,2636,2652,2654,2646,2656,2650,2640,2645,2656,2659,2653,2642,2644,2643,2657,2646,2660,2647,2650,2635,2658,2659,2653,2646,2640,2658,2653,2659,2662,2651,2642,2657,2645,2650,2659,2658,2649,2650,2643,2657,2655,2657,2635,2653,2656,2642,2652,2642,2640,2658,2646,2653,2643,2649,2651,2651,2650,2662,2642,2654,2654,2651,2658,2656,2650,2661,2640,2654,2651,2656,2657,2640,2646,2663,2652,2650,2652,2661,2650,2654,2645,2658,2649,2653,2647,2657,2651,2656,2641,2663,2645,2649,2648,2653,2662,2653,2659,2659,2642,2659,2656,2635,2652,2644,2653,2663,2645,2643,2672,2644,2655,2650,2654,2667,2644,2652,2647,2652,2655,2642,2659,2650,2642,2655,2667,2653,2642,2653,2649,2661,2642,2653,2650,2656,2641,2656,2654,2634,2640,2658,2651,2659,2640,2667,2633,2652,2644,2659,2650,2652,2643,2640,2653,2658,2646,2662,2646,2651,2652,2655,2659,2655,2640,2643,2652,2657,2650,2637,2653,2640,2653,2665,2649,2646,2649,2654,2647,2655,2646,2641,2650,2647,2653,2659,2647,thumbup
2640,2643,2640,2651,2659,2649,2667,2634,2665,2646,2658,2656,2657,2657,2645,2661,2665,2647,2643,2662,2668,2645,2662,2643,2669,2644,2649,2651,2653,2654,2653,2643,2654,2653,2658,2654,2646,2658,2647,2656,2659,2650,2661,2651,2658,2656,2656,2646,2657,2646,2647,2657,2643,2657,2653,2644,2655,2643,2657,2641,2637,2644,2653,2646,2660,2665,2660,2647,2641,2659,2665,2649,2651,2645,2642,2653,2663,2655,2640,2651,2667,2643,2654,2656,2641,2647,2656,2651,2662,2642,2645,2657,2651,2654,2645,2647,2662,2646,2662,2645,2659,2654,2657,2646,2656,2661,2654,2657,2646,2641,2659,2649,2663,2645,2635,2664,2661,2647,2657,2645,2657,2647,2661,2653,2655,2658,2641,2654,2653,2655,2661,2647,2629,2639,2650,2646,2658,2651,2630,2643,2649,2647,2654,2645,2643,2642,2654,2658,2652,2657,2646,2643,2656,2653,2658,2651,2647,2670,2653,2659,2645,2651,2639,2645,2640,2657,2666,2654,2655,2651,2665,2641,2657,2654,2646,2637,2655,2661,2659,2655,2647,2666,2647,2661,2665,2653,2638,2662,2652,2660,2661,2653,2670,2654,2649,2658,2650,2658,2643,2651,2655,2642,2661,2644,2656,2647,2645,2655,2652,2651,2647,2650,2656,2653,2662,2663,2640,2649,2655,2659,2650,2643,2659,2635,2657,2655,2653,2655,2641,2654,2642,2651,2662,2645,2656,2646,2653,2654,2644,2655,2640,2640,2665,2645,2655,2656,2640,2645,2653,2659,2652,2657,2666,2652,2653,2646,2650,2656,2645,2650,2650,2660,2647,2657,2633,2645,2653,2648,2662,2647,2646,2631,2663,2657,2653,2661,2639,2661,2648,2655,2651,2651,2640,2649,2650,2658,2647,2663,2651,2640,2664,2652,2660,2647,2651,2647,2657,2643,2656,2643,thumbup
2655,2644,2657,2650,2667,2640,2645,2655,2657,2657,2658,2653,2643,2658,2640,2658,2647,2658,2642,2647,2666,2662,2650,2659,2659,2657,2654,2657,2646,2659,2655,2639,2656,2660,2655,2663,2641,2659,2661,2649,2657,2644,2655,2650,2655,2651,2663,2658,2649,2657,2657,2651,2653,2656,2647,2663,2642,2653,2652,2651,2625,2639,2661,2649,2663,2655,2642,2643,2641,2655,2663,2647,2640,2655,2641,2656,2662,2649,2638,2643,2661,2653,2661,2657,2657,2654,2658,2655,2661,2647,2651,2657,2654,2651,2643,2654,2642,2662,2645,2658,2649,2657,2661,2654,2662,2650,2657,2649,2649,2640,2665,2645,2659,2649,2668,2640,2658,2656,2654,2657,2651,2657,2658,2659,2651,2654,2666,2650,2655,2657,2649,2654,2634,2649,2644,2650,2655,2645,2653,2654,2658,2650,2652,2661,2663,2630,2647,2654,2646,2653,2653,2647,2651,2658,2649,2662,2640,2640,2659,2651,2654,2649,2659,2650,2666,2640,2647,2655,2640,2642,2645,2651,2661,2653,2651,2645,2643,2655,2659,2652,2651,2647,2666,2643,2656,2651,2656,2643,2649,2658,2650,2659,2654,2642,2653,2656,2651,2655,2646,2643,2645,2652,2658,2653,2652,2653,2649,2657,2649,2655,2642,2650,2645,2658,2654,2653,2641,2657,2671,2654,2657,2642,2657,2650,2645,2658,2647,2655,2657,2646,2653,2655,2646,2654,2651,2645,2657,2655,2661,2651,2655,2639,2654,2654,2651,2656,2650,2652,2651,2656,2657,2653,2649,2657,2654,2657,2657,2647,2650,2656,2656,2661,2654,2659,2649,2646,2663,2655,2652,2661,2640,2659,2657,2653,2651,2658,2656,2647,2647,2645,2654,2659,2662,2661,2647,2658,2667,2660,2660,2645,2656,2654,2659,2651,2645,2638,2657,2661,2651,2650,thumbup
2647,2661,2652,2650,2659,2646,2649,2663,2640,2652,2647,2647,2653,2650,2656,2650,2657,2647,2656,2649,2641,2651,2659,2645,2657,2640,2651,2658,2651,2654,2658,2656,2653,2662,2651,2654,2663,2642,2653,2656,2650,2654,2647,2645,2663,2656,2658,2660,2655,2657,2648,2647,2666,2662,2671,2647,2658,2644,2651,2653,2662,2658,2654,2646,2656,2659,2662,2640,2655,2659,2659,2653,2653,2658,2651,2645,2666,2654,2670,2637,2654,2659,2645,2657,2651,2651,2658,2647,2660,2647,2641,2656,2649,2652,2656,2651,2641,2660,2659,2645,2656,2655,2659,2658,2663,2657,2662,2646,2641,2647,2654,2651,2656,2666,2637,2647,2660,2650,2665,2650,2641,2640,2640,2656,2646,2657,2646,2654,2658,2640,2653,2654,2657,2660,2645,2655,2657,2655,2669,2661,2648,2658,2646,2655,2651,2657,2656,2657,2657,2646,2654,2643,2661,2642,2665,2653,2646,2642,2654,2656,2651,2659,2633,2651,2647,2649,2656,2643,2643,2640,2655,2657,2645,2657,2642,2644,2653,2651,2653,2662,2653,2643,2658,2645,2651,2661,2660,2646,2645,2653,2651,2656,2640,2661,2662,2656,2653,2645,2642,2639,2650,2646,2664,2640,2640,2646,2642,2657,2663,2654,2650,2653,2645,2647,2663,2645,2663,2653,2655,2643,2656,2660,2641,2640,2654,2658,2656,2655,2640,2651,2655,2650,2655,2645,2653,2638,2662,2643,2660,2654,2665,2640,2653,2649,2659,2661,2654,2651,2647,2659,2645,2655,2653,2645,2649,2656,2647,2656,2639,2640,2661,2640,2661,2655,2649,2630,2655,2650,2650,2656,2661,2656,2640,2659,2657,2652,2649,2640,2660,2650,2658,2661,2655,2656,2655,2643,2657,2656,2640,2656,2663,2647,2655,2644,2654,2661,2643,2654,2650,2654,thumbup
2657,2641,2660,2647,2655,2641,2639,2648,2643,2655,2655,2652,2646,2641,2647,2651,2658,2645,2647,2656,2653,2661,2658,2658,2651,2641,2642,2653,2654,2643,2644,2642,2657,2644,2663,2654,2655,2647,2646,2653,2660,2654,2655,2657,2649,2660,2646,2649,2647,2645,2647,2650,2659,2650,2649,2640,2641,2654,2657,2650,2671,2647,2651,2659,2652,2663,2661,2650,2655,2655,2653,2657,2645,2653,2645,2655,2661,2647,2646,2643,2661,2656,2663,2646,2663,2655,2656,2657,2650,2657,2643,2654,2643,2654,2644,2647,2641,2645,2645,2660,2641,2648,2667,2665,2649,2658,2650,2657,2654,2657,2663,2642,2656,2655,2643,2662,2640,2649,2654,2642,2661,2634,2647,2663,2661,2653,2640,2654,2654,2649,2657,2657,2642,2657,2653,2654,2661,2647,2671,2640,2661,2658,2654,2652,2656,2659,2649,2658,2663,2650,2651,2640,2655,2656,2656,2662,2652,2654,2665,2647,2655,2658,2665,2645,2652,2659,2650,2645,2655,2645,2657,2647,2651,2649,2638,2645,2651,2655,2659,2649,2660,2633,2646,2655,2657,2655,2662,2647,2643,2658,2656,2655,2657,2646,2657,2654,2659,2645,2662,2654,2651,2653,2651,2643,2657,2642,2663,2650,2661,2643,2643,2651,2647,2657,2657,2654,2645,2645,2639,2656,2657,2653,2662,2646,2647,2653,2656,2666,2642,2643,2654,2662,2654,2661,2640,2658,2646,2656,2659,2653,2650,2647,2655,2650,2654,2661,2652,2653,2641,2657,2650,2657,2645,2650,2647,2654,2657,2645,2645,2647,2655,2647,2655,2659,2658,2651,2655,2641,2656,2655,2655,2644,2660,2663,2646,2651,2669,2649,2657,2649,2657,2654,2640,2666,2662,2654,2659,2645,2655,2658,2657,2651,2659,2642,2657,2643,2655,2657,2652,2655,thumbup
2651,2642,2643,2657,2655,2657,2657,2662,2654,2655,2657,2644,2643,2657,2650,2654,2650,2655,2655,2665,2652,2657,2661,2656,2656,2659,2658,2650,2662,2653,2672,2652,2652,2662,2654,2647,2649,2645,2658,2650,2658,2651,2645,2647,2655,2658,2667,2651,2655,2642,2651,2654,2661,2650,2650,2653,2663,2653,2655,2656,2640,2646,2643,2657,2655,2659,2667,2653,2656,2651,2661,2657,2642,2651,2653,2659,2656,2656,2642,2649,2661,2653,2670,2651,2657,2640,2653,2657,2655,2659,2669,2653,2658,2663,2650,2658,2646,2645,2656,2649,2662,2649,2647,2650,2655,2649,2666,2663,2653,2649,2649,2659,2658,2654,2645,2637,2661,2654,2651,2658,2638,2657,2656,2657,2654,2663,2662,2656,2660,2650,2665,2651,2658,2668,2651,2657,2657,2660,2661,2643,2663,2657,2659,2656,2667,2643,2661,2646,2655,2650,2654,2661,2653,2655,2657,2656,2646,2640,2663,2653,2655,2661,2655,2651,2647,2661,2657,2662,2656,2647,2644,2658,2654,2663,2643,2643,2663,2655,2659,2649,2646,2656,2663,2654,2655,2656,2655,2645,2657,2655,2658,2651,2641,2659,2647,2657,2647,2662,2641,2641,2662,2644,2661,2656,2657,2644,2663,2651,2654,2661,2659,2659,2653,2652,2663,2657,2645,2656,2647,2656,2647,2657,2659,2645,2661,2656,2658,2663,2656,2650,2661,2653,2661,2658,2651,2640,2652,2647,2657,2656,2653,2641,2653,2650,2661,2651,2653,2658,2654,2661,2658,2652,2647,2645,2646,2667,2652,2658,2637,2647,2654,2651,2658,2654,2637,2646,2645,2657,2653,2661,2661,2655,2651,2665,2655,2665,2657,2643,2641,2657,2658,2655,2647,2651,2657,2649,2659,2651,2647,2650,2654,2658,2653,2661,2645,2656,2649,2655,2657,2646,thumbup
