sensor1_t1,sensor2_t1,sensor3_t1,sensor4_t1,sensor5_t1,sensor6_t1,sensor1_t2,sensor2_t2,sensor3_t2,sensor4_t2,sensor5_t2,sensor6_t2,sensor1_t3,sensor2_t3,sensor3_t3,sensor4_t3,sensor5_t3,sensor6_t3,sensor1_t4,sensor2_t4,sensor3_t4,sensor4_t4,sensor5_t4,sensor6_t4,sensor1_t5,sensor2_t5,sensor3_t5,sensor4_t5,sensor5_t5,sensor6_t5,sensor1_t6,sensor2_t6,sensor3_t6,sensor4_t6,sensor5_t6,sensor6_t6,sensor1_t7,sensor2_t7,sensor3_t7,sensor4_t7,sensor5_t7,sensor6_t7,sensor1_t8,sensor2_t8,sensor3_t8,sensor4_t8,sensor5_t8,sensor6_t8,sensor1_t9,sensor2_t9,sensor3_t9,sensor4_t9,sensor5_t9,sensor6_t9,sensor1_t10,sensor2_t10,sensor3_t10,sensor4_t10,sensor5_t10,sensor6_t10,sensor1_t11,sensor2_t11,sensor3_t11,sensor4_t11,sensor5_t11,sensor6_t11,sensor1_t12,sensor2_t12,sensor3_t12,sensor4_t12,sensor5_t12,sensor6_t12,sensor1_t13,sensor2_t13,sensor3_t13,sensor4_t13,sensor5_t13,sensor6_t13,sensor1_t14,sensor2_t14,sensor3_t14,sensor4_t14,sensor5_t14,sensor6_t14,sensor1_t15,sensor2_t15,sensor3_t15,sensor4_t15,sensor5_t15,sensor6_t15,sensor1_t16,sensor2_t16,sensor3_t16,sensor4_t16,sensor5_t16,sensor6_t16,sensor1_t17,sensor2_t17,sensor3_t17,sensor4_t17,sensor5_t17,sensor6_t17,sensor1_t18,sensor2_t18,sensor3_t18,sensor4_t18,sensor5_t18,sensor6_t18,sensor1_t19,sensor2_t19,sensor3_t19,sensor4_t19,sensor5_t19,sensor6_t19,sensor1_t20,sensor2_t20,sensor3_t20,sensor4_t20,sensor5_t20,sensor6_t20,sensor1_t21,sensor2_t21,sensor3_t21,sensor4_t21,sensor5_t21,sensor6_t21,sensor1_t22,sensor2_t22,sensor3_t22,sensor4_t22,sensor5_t22,sensor6_t22,sensor1_t23,sensor2_t23,sensor3_t23,sensor4_t23,sensor5_t23,sensor6_t23,sensor1_t24,sensor2_t24,sensor3_t24,sensor4_t24,sensor5_t24,sensor6_t24,sensor1_t25,sensor2_t25,sensor3_t25,sensor4_t25,sensor5_t25,sensor6_t25,sensor1_t26,sensor2_t26,sensor3_t26,sensor4_t26,sensor5_t26,sensor6_t26,sensor1_t27,sensor2_t27,sensor3_t27,sensor4_t27,sensor5_t27,sensor6_t27,sensor1_t28,sensor2_t28,sensor3_t28,sensor4_t28,sensor5_t28,sensor6_t28,sensor1_t29,sensor2_t29,sensor3_t29,sensor4_t29,sensor5_t29,sensor6_t29,sensor1_t30,sensor2_t30,sensor3_t30,sensor4_t30,sensor5_t30,sensor6_t30,sensor1_t31,sensor2_t31,sensor3_t31,sensor4_t31,sensor5_t31,sensor6_t31,sensor1_t32,sensor2_t32,sensor3_t32,sensor4_t32,sensor5_t32,sensor6_t32,sensor1_t33,sensor2_t33,sensor3_t33,sensor4_t33,sensor5_t33,sensor6_t33,sensor1_t34,sensor2_t34,sensor3_t34,sensor4_t34,sensor5_t34,sensor6_t34,sensor1_t35,sensor2_t35,sensor3_t35,sensor4_t35,sensor5_t35,sensor6_t35,sensor1_t36,sensor2_t36,sensor3_t36,sensor4_t36,sensor5_t36,sensor6_t36,sensor1_t37,sensor2_t37,sensor3_t37,sensor4_t37,sensor5_t37,sensor6_t37,sensor1_t38,sensor2_t38,sensor3_t38,sensor4_t38,sensor5_t38,sensor6_t38,sensor1_t39,sensor2_t39,sensor3_t39,sensor4_t39,sensor5_t39,sensor6_t39,sensor1_t40,sensor2_t40,sensor3_t40,sensor4_t40,sensor5_t40,sensor6_t40,sensor1_t41,sensor2_t41,sensor3_t41,sensor4_t41,sensor5_t41,sensor6_t41,sensor1_t42,sensor2_t42,sensor3_t42,sensor4_t42,sensor5_t42,sensor6_t42,sensor1_t43,sensor2_t43,sensor3_t43,sensor4_t43,sensor5_t43,sensor6_t43,sensor1_t44,sensor2_t44,sensor3_t44,sensor4_t44,sensor5_t44,sensor6_t44,sensor1_t45,sensor2_t45,sensor3_t45,sensor4_t45,sensor5_t45,sensor6_t45,sensor1_t46,sensor2_t46,sensor3_t46,sensor4_t46,sensor5_t46,sensor6_t46,sensor1_t47,sensor2_t47,sensor3_t47,sensor4_t47,sensor5_t47,sensor6_t47,sensor1_t48,sensor2_t48,sensor3_t48,sensor4_t48,sensor5_t48,sensor6_t48,sensor1_t49,sensor2_t49,sensor3_t49,sensor4_t49,sensor5_t49,sensor6_t49,sensor1_t50,sensor2_t50,sensor3_t50,sensor4_t50,sensor5_t50,sensor6_t50,gesture
2690,2710,2703,2714,2717,2705,2704,2704,2705,2709,2718,2703,2706,2713,2702,2720,2704,2704,2705,2704,2714,2699,2718,2701,2704,2704,2713,2705,2714,2714,2717,2705,2711,2704,2711,2701,2706,2718,2694,2719,2707,2719,2704,2702,2710,2702,2716,2702,2707,2700,2706,2700,2724,2705,2690,2719,2705,2704,2705,2701,2694,2711,2703,2717,2702,2717,2721,2697,2721,2701,2717,2710,2707,2701,2714,2703,2723,2704,2714,2706,2713,2717,2704,2722,2704,2711,2704,2720,2704,2719,2701,2711,2704,2701,2723,2704,2707,2697,2722,2707,2704,2719,2715,2688,2715,2717,2705,2704,2711,2701,2711,2719,2704,2711,2720,2708,2704,2720,2711,2703,2719,2699,2720,2710,2702,2707,2694,2719,2704,2704,2722,2718,2711,2687,2705,2703,2703,2722,2715,2708,2702,2721,2707,2700,2706,2705,2713,2699,2721,2703,2701,2715,2701,2722,2704,2719,2707,2704,2707,2718,2717,2698,2690,2715,2704,2715,2716,2700,2735,2698,2717,2705,2711,2718,2714,2688,2709,2699,2711,2709,2699,2704,2714,2713,2704,2711,2715,2705,2696,2719,2716,2705,2704,2702,2721,2702,2702,2721,2698,2705,2720,2704,2702,2717,2704,2688,2707,2704,2724,2708,2695,2704,2720,2710,2715,2709,2691,2714,2704,2711,2703,2714,2691,2706,2704,2717,2701,2723,2710,2698,2701,2717,2710,2703,2700,2703,2707,2710,2702,2717,2700,2719,2705,2719,2707,2707,2698,2717,2710,2702,2718,2711,2699,2715,2710,2698,2719,2705,2710,2697,2701,2718,2706,2701,2704,2692,2706,2709,2704,2698,2710,2689,2714,2717,2706,2704,2699,2704,2701,2719,2711,2699,2704,2689,2718,2711,2704,2704,2706,2703,2715,2714,2704,2701,2699,2715,2704,2700,2723,2718,close
2694,2705,2704,2704,2721,2704,2703,2709,2704,2723,2707,2702,2717,2704,2725,2705,2704,2720,2700,2710,2706,2721,2703,2718,2704,2704,2715,2704,2709,2704,2713,2697,2720,2704,2705,2719,2716,2698,2704,2702,2720,2705,2699,2694,2718,2702,2703,2719,2716,2694,2711,2713,2708,2701,2721,2719,2704,2717,2708,2704,2694,2721,2715,2701,2711,2718,2711,2701,2709,2717,2707,2701,2701,2713,2698,2716,2717,2701,2709,2683,2720,2704,2709,2719,2715,2702,2704,2718,2704,2720,2719,2714,2702,2711,2701,2721,2707,2715,2707,2717,2716,2702,2726,2704,2721,2704,2714,2720,2721,2701,2708,2705,2715,2698,2715,2702,2714,2711,2701,2720,2704,2718,2704,2706,2711,2703,2721,2697,2725,2706,2704,2705,2704,2704,2722,2704,2726,2710,2708,2695,2707,2700,2712,2718,2715,2701,2704,2717,2719,2704,2704,2698,2711,2702,2715,2713,2709,2700,2716,2701,2703,2709,2704,2710,2704,2698,2719,2704,2707,2704,2725,2704,2703,2717,2710,2691,2706,2698,2715,2704,2698,2702,2717,2699,2720,2710,2702,2709,2699,2722,2708,2693,2693,2724,2705,2695,2719,2704,2715,2697,2722,2705,2703,2703,2691,2723,2703,2718,2711,2697,2706,2703,2699,2713,2703,2720,2720,2705,2713,2710,2706,2718,2714,2691,2719,2704,2699,2709,2719,2704,2719,2710,2703,2711,2713,2700,2694,2713,2702,2706,2693,2721,2709,2710,2714,2702,2713,2703,2719,2704,2700,2709,2688,2710,2695,2719,2709,2691,2719,2706,2699,2718,2704,2720,2707,2695,2717,2704,2717,2711,2699,2704,2699,2718,2707,2695,2685,2720,2706,2715,2704,2709,2710,2714,2697,2716,2704,2708,2706,2688,2723,2703,2715,2709,2705,2697,2713,2704,2709,2706,close
2710,2691,2707,2699,2722,2704,2704,2713,2699,2718,2711,2698,2691,2706,2699,2718,2705,2694,2694,2705,2715,2697,2715,2704,2692,2707,2704,2713,2702,2718,2704,2691,2723,2704,2718,2711,2717,2698,2704,2710,2701,2719,2709,2713,2705,2703,2716,2703,2722,2697,2697,2709,2705,2707,2718,2695,2719,2699,2722,2706,2695,2704,2706,2713,2705,2713,2707,2690,2714,2699,2720,2703,2704,2723,2713,2694,2717,2704,2697,2699,2703,2715,2711,2696,2706,2698,2725,2704,2716,2706,2709,2704,2693,2709,2698,2716,2687,2704,2702,2715,2706,2695,2709,2695,2697,2706,2704,2718,2714,2705,2706,2702,2716,2702,2707,2709,2695,2711,2705,2699,2706,2694,2722,2707,2703,2710,2699,2711,2704,2715,2704,2721,2701,2704,2698,2711,2704,2705,2711,2693,2713,2703,2699,2718,2719,2694,2722,2706,2698,2710,2704,2709,2713,2695,2714,2701,2713,2701,2704,2711,2704,2711,2703,2693,2718,2699,2722,2711,2704,2699,2714,2701,2725,2707,2697,2703,2701,2715,2707,2699,2705,2698,2719,2704,2702,2711,2707,2704,2716,2704,2703,2718,2704,2704,2704,2707,2716,2701,2689,2703,2702,2695,2710,2701,2701,2717,2705,2712,2711,2698,2729,2698,2706,2707,2703,2717,2703,2704,2720,2704,2702,2711,2714,2707,2693,2709,2702,2718,2709,2702,2710,2708,2702,2721,2704,2688,2724,2704,2704,2713,2704,2699,2722,2704,2726,2709,2720,2704,2695,2706,2702,2719,2685,2715,2705,2724,2713,2701,2703,2693,2717,2702,2707,2705,2694,2706,2699,2711,2713,2698,2721,2704,2730,2707,2704,2720,2711,2695,2718,2704,2721,2704,2694,2694,2711,2699,2714,2705,2698,2697,2721,2705,2697,2710,2702,2695,2715,2701,2724,2709,close
2706,2697,2718,2703,2699,2705,2706,2704,2700,2715,2704,2695,2699,2703,2709,2720,2705,2700,2695,2720,2704,2720,2702,2719,2704,2699,2714,2701,2717,2702,2715,2694,2718,2704,2695,2709,2699,2705,2714,2695,2707,2701,2711,2718,2714,2702,2718,2707,2703,2709,2710,2698,2713,2700,2723,2701,2695,2714,2703,2715,2713,2690,2717,2704,2723,2710,2721,2704,2729,2704,2699,2718,2697,2688,2709,2704,2720,2707,2700,2702,2695,2719,2705,2722,2711,2703,2698,2715,2706,2695,2699,2704,2702,2718,2704,2701,2703,2695,2723,2706,2694,2713,2710,2699,2709,2698,2713,2702,2703,2697,2711,2703,2715,2707,2719,2706,2698,2711,2705,2695,2704,2704,2703,2718,2705,2698,2693,2708,2705,2721,2709,2703,2708,2694,2715,2699,2711,2711,2701,2704,2714,2708,2695,2707,2703,2709,2705,2696,2709,2701,2694,2695,2710,2703,2721,2706,2720,2704,2709,2710,2703,2722,2713,2704,2705,2709,2701,2721,2704,2693,2699,2714,2704,2702,2698,2726,2715,2695,2713,2699,2704,2701,2714,2704,2698,2714,2711,2699,2704,2699,2722,2706,2701,2687,2715,2703,2700,2709,2703,2703,2717,2711,2704,2717,2697,2709,2703,2695,2715,2704,2698,2721,2707,2702,2714,2704,2706,2690,2718,2704,2723,2706,2704,2687,2715,2701,2703,2710,2699,2721,2704,2699,2702,2705,2704,2702,2722,2704,2721,2710,2695,2705,2698,2698,2717,2704,2710,2693,2713,2706,2699,2721,2719,2704,2704,2706,2698,2716,2717,2690,2714,2711,2707,2708,2705,2693,2706,2702,2700,2715,2709,2715,2713,2695,2717,2703,2719,2695,2715,2707,2701,2717,2699,2709,2704,2699,2719,2703,2717,2704,2699,2710,2704,2719,2704,2711,2703,2693,2714,2701,close
2715,2698,2711,2714,2697,2719,2723,2701,2704,2720,2707,2695,2689,2704,2704,2703,2713,2699,2717,2707,2699,2706,2704,2701,2709,2704,2717,2714,2707,2697,2695,2725,2704,2699,2718,2704,2709,2701,2703,2706,2702,2719,2720,2698,2713,2703,2702,2706,2709,2699,2717,2698,2715,2705,2695,2714,2703,2720,2710,2697,2704,2720,2706,2698,2719,2704,2695,2719,2701,2698,2707,2699,2700,2702,2709,2701,2718,2704,2705,2705,2705,2720,2708,2703,2709,2689,2713,2703,2702,2709,2700,2697,2725,2705,2705,2717,2704,2703,2704,2711,2707,2707,2711,2689,2719,2701,2721,2704,2704,2700,2713,2705,2718,2709,2703,2683,2709,2695,2718,2711,2690,2714,2704,2712,2706,2693,2704,2706,2715,2705,2701,2717,2694,2704,2707,2695,2718,2701,2690,2718,2713,2702,2713,2703,2707,2702,2711,2698,2717,2704,2704,2704,2724,2704,2702,2717,2704,2701,2718,2704,2709,2707,2702,2709,2698,2711,2704,2719,2709,2711,2705,2697,2711,2702,2711,2701,2711,2704,2720,2708,2693,2707,2702,2717,2704,2699,2704,2704,2706,2693,2711,2703,2701,2692,2717,2704,2713,2707,2718,2698,2693,2711,2699,2711,2693,2715,2704,2695,2707,2700,2691,2702,2701,2714,2704,2692,2699,2717,2709,2699,2717,2703,2699,2719,2707,2716,2717,2704,2700,2717,2710,2699,2718,2704,2707,2702,2709,2704,2715,2706,2703,2693,2713,2698,2720,2706,2697,2707,2711,2693,2718,2705,2716,2704,2723,2706,2704,2717,2700,2689,2709,2703,2709,2710,2704,2704,2699,2720,2707,2692,2698,2695,2701,2705,2695,2709,2711,2707,2704,2703,2706,2711,2704,2693,2711,2697,2720,2704,2699,2711,2702,2700,2713,2698,2698,2717,2711,2694,2725,2704,close
2698,2710,2704,2695,2717,2702,2704,2707,2704,2694,2708,2699,2688,2707,2706,2722,2714,2702,2706,2688,2714,2698,2718,2707,2704,2699,2710,2699,2717,2704,2703,2687,2725,2703,2715,2708,2704,2704,2714,2698,2726,2707,2689,2713,2717,2708,2699,2710,2717,2693,2725,2706,2704,2711,2698,2714,2704,2704,2711,2702,2702,2699,2711,2697,2722,2703,2693,2710,2701,2710,2704,2703,2717,2701,2709,2709,2703,2717,2679,2704,2705,2714,2706,2694,2698,2714,2706,2697,2711,2696,2688,2705,2704,2697,2711,2703,2705,2690,2721,2701,2705,2711,2690,2710,2705,2697,2711,2703,2706,2704,2718,2701,2727,2706,2713,2698,2734,2706,2704,2697,2700,2701,2716,2704,2724,2705,2714,2702,2689,2709,2699,2718,2704,2698,2713,2704,2701,2711,2727,2704,2719,2707,2704,2693,2687,2700,2699,2706,2706,2703,2695,2701,2711,2697,2719,2709,2715,2683,2721,2704,2701,2711,2704,2688,2716,2703,2718,2705,2704,2717,2705,2691,2722,2705,2711,2705,2692,2711,2702,2720,2709,2701,2691,2705,2703,2710,2702,2714,2695,2695,2715,2704,2704,2692,2715,2701,2719,2706,2688,2705,2705,2704,2709,2702,2714,2686,2716,2703,2701,2710,2697,2703,2703,2719,2708,2695,2706,2691,2709,2700,2714,2704,2714,2709,2703,2719,2706,2695,2704,2698,2711,2703,2725,2705,2701,2703,2704,2714,2700,2721,2687,2704,2703,2719,2711,2701,2693,2713,2711,2697,2715,2704,2704,2697,2709,2709,2697,2713,2711,2688,2721,2704,2714,2709,2693,2703,2702,2699,2715,2703,2718,2702,2719,2704,2695,2711,2704,2693,2714,2704,2702,2713,2699,2693,2714,2704,2697,2714,2704,2699,2699,2708,2706,2691,2707,2698,2707,2715,2710,2702,close
2717,2701,2716,2703,2696,2710,2715,2711,2699,2715,2705,2699,2718,2691,2702,2708,2701,2722,2706,2693,2721,2707,2715,2710,2707,2725,2704,2693,2711,2700,2705,2704,2706,2704,2706,2700,2686,2709,2690,2714,2704,2722,2701,2704,2704,2697,2714,2703,2689,2705,2702,2722,2709,2700,2704,2710,2711,2702,2717,2704,2707,2699,2704,2709,2700,2711,2718,2713,2702,2724,2706,2703,2695,2707,2704,2701,2719,2704,2707,2699,2704,2709,2701,2721,2722,2700,2701,2710,2702,2717,2704,2704,2719,2703,2718,2707,2717,2690,2702,2705,2702,2717,2711,2683,2713,2697,2716,2704,2713,2688,2715,2704,2717,2708,2694,2716,2701,2703,2714,2699,2691,2704,2699,2721,2706,2701,2706,2691,2714,2706,2699,2711,2704,2685,2714,2699,2721,2704,2705,2694,2705,2706,2715,2703,2697,2720,2714,2698,2720,2704,2707,2711,2711,2699,2714,2704,2722,2686,2710,2701,2721,2706,2713,2702,2722,2706,2701,2709,2700,2713,2704,2694,2713,2701,2704,2687,2711,2703,2698,2713,2689,2716,2702,2721,2707,2701,2706,2700,2713,2703,2714,2702,2704,2691,2705,2698,2718,2704,2719,2694,2721,2705,2703,2716,2723,2697,2710,2709,2704,2719,2715,2704,2701,2707,2699,2715,2718,2705,2721,2709,2703,2717,2719,2701,2704,2710,2701,2707,2702,2699,2699,2717,2707,2701,2697,2702,2694,2722,2707,2694,2691,2709,2705,2702,2721,2706,2704,2692,2708,2704,2702,2708,2714,2699,2711,2702,2710,2703,2711,2691,2709,2694,2717,2704,2691,2708,2708,2708,2704,2718,2704,2723,2706,2701,2715,2701,2715,2698,2723,2703,2707,2710,2698,2703,2713,2700,2719,2704,2705,2720,2707,2693,2716,2701,2711,2685,2713,2700,2722,2704,close
2690,2704,2703,2717,2709,2699,2719,2704,2701,2713,2704,2718,2702,2695,2722,2705,2703,2713,2695,2707,2701,2722,2707,2695,2695,2695,2721,2704,2699,2718,2703,2714,2698,2705,2714,2702,2707,2727,2712,2694,2714,2702,2693,2707,2705,2715,2711,2702,2698,2699,2722,2704,2712,2710,2722,2704,2705,2709,2702,2710,2706,2687,2705,2697,2716,2702,2721,2708,2703,2710,2699,2717,2684,2704,2701,2699,2709,2700,2711,2693,2721,2707,2704,2713,2697,2710,2706,2716,2711,2699,2704,2704,2704,2701,2709,2709,2688,2710,2701,2719,2713,2701,2701,2705,2699,2711,2706,2715,2702,2710,2704,2707,2717,2704,2710,2704,2719,2703,2698,2713,2705,2697,2717,2703,2718,2704,2691,2706,2702,2708,2704,2705,2700,2714,2704,2701,2723,2704,2694,2711,2706,2702,2723,2704,2719,2695,2709,2707,2697,2713,2710,2700,2702,2709,2702,2720,2695,2719,2705,2715,2710,2702,2705,2706,2702,2719,2704,2701,2704,2687,2719,2701,2723,2705,2689,2709,2703,2723,2710,2697,2700,2713,2711,2698,2720,2704,2701,2714,2714,2695,2711,2698,2691,2711,2706,2713,2705,2695,2707,2705,2699,2717,2710,2697,2694,2714,2705,2691,2710,2697,2692,2707,2709,2705,2711,2700,2716,2706,2707,2710,2704,2717,2713,2703,2699,2705,2701,2717,2714,2694,2727,2704,2699,2720,2715,2707,2704,2715,2704,2694,2700,2699,2707,2695,2723,2705,2690,2704,2700,2716,2713,2703,2727,2705,2699,2711,2704,2706,2690,2702,2705,2716,2704,2693,2699,2707,2704,2702,2710,2702,2703,2694,2718,2704,2727,2706,2695,2709,2707,2699,2718,2704,2704,2689,2705,2697,2719,2703,2715,2701,2711,2702,2719,2709,2703,2705,2704,2716,2709,2701,close
2694,2722,2704,2698,2716,2702,2711,2697,2723,2704,2714,2711,2699,2703,2727,2704,2700,2711,2711,2690,2718,2703,2719,2703,2704,2718,2710,2698,2711,2707,2704,2688,2715,2704,2698,2710,2703,2704,2720,2698,2717,2705,2709,2695,2723,2704,2701,2706,2716,2702,2701,2717,2706,2702,2701,2717,2715,2704,2715,2704,2694,2704,2691,2721,2710,2694,2699,2727,2715,2701,2698,2710,2709,2700,2723,2704,2698,2716,2703,2704,2704,2719,2711,2698,2711,2694,2710,2701,2699,2710,2716,2704,2698,2711,2706,2718,2706,2703,2720,2709,2703,2716,2704,2703,2714,2701,2720,2708,2703,2715,2702,2704,2704,2714,2705,2705,2715,2701,2707,2709,2693,2710,2699,2723,2705,2701,2704,2720,2704,2710,2710,2702,2697,2704,2707,2720,2711,2703,2701,2710,2704,2720,2711,2698,2717,2695,2704,2711,2704,2723,2709,2695,2722,2704,2722,2706,2712,2695,2695,2719,2708,2704,2688,2704,2703,2717,2712,2702,2718,2691,2713,2701,2709,2713,2726,2704,2697,2715,2704,2725,2693,2704,2704,2709,2715,2705,2704,2701,2720,2704,2703,2715,2709,2694,2713,2703,2706,2704,2704,2706,2713,2705,2704,2711,2698,2704,2709,2707,2699,2713,2704,2683,2721,2704,2695,2709,2726,2697,2710,2709,2698,2717,2699,2711,2704,2717,2710,2701,2703,2695,2710,2703,2701,2704,2698,2711,2713,2704,2716,2704,2694,2699,2711,2698,2709,2704,2701,2704,2694,2707,2701,2719,2704,2689,2715,2703,2717,2704,2691,2704,2704,2719,2710,2699,2704,2700,2711,2703,2699,2713,2717,2703,2711,2704,2697,2709,2714,2695,2705,2704,2695,2710,2706,2691,2718,2699,2719,2706,2701,2713,2703,2713,2709,2701,2701,2688,2714,2700,2719,2704,close
2714,2695,2719,2707,2699,2709,2705,2699,2704,2708,2698,2716,2709,2709,2704,2719,2704,2698,2705,2701,2714,2704,2717,2709,2707,2704,2694,2716,2707,2695,2708,2688,2713,2707,2698,2720,2694,2715,2707,2703,2707,2704,2716,2705,2700,2695,2710,2702,2695,2719,2705,2698,2715,2704,2705,2693,2717,2695,2719,2709,2720,2703,2723,2710,2704,2712,2691,2723,2710,2703,2722,2709,2704,2715,2699,2719,2711,2702,2704,2706,2704,2699,2718,2704,2703,2697,2710,2705,2697,2709,2703,2701,2709,2703,2713,2711,2705,2704,2697,2717,2706,2699,2697,2682,2693,2693,2720,2715,2701,2698,2698,2704,2698,2717,2689,2689,2695,2709,2717,2719,2713,2704,2702,2707,2704,2694,2693,2704,2693,2717,2709,2701,2711,2701,2703,2713,2705,2697,2704,2709,2702,2697,2714,2703,2713,2710,2693,2715,2699,2714,2703,2700,2702,2705,2699,2706,2713,2692,2715,2703,2699,2711,2694,2715,2710,2703,2716,2704,2723,2711,2704,2717,2704,2695,2714,2705,2717,2711,2707,2705,2711,2702,2711,2704,2704,2697,2694,2699,2693,2710,2704,2708,2695,2710,2706,2704,2717,2704,2707,2690,2714,2706,2695,2711,2704,2694,2711,2698,2714,2703,2704,2698,2715,2704,2720,2704,2715,2705,2719,2704,2699,2714,2701,2701,2697,2715,2706,2695,2699,2697,2694,2712,2706,2690,2713,2704,2721,2706,2698,2710,2718,2704,2715,2704,2698,2705,2706,2698,2711,2695,2713,2703,2704,2708,2703,2716,2711,2703,2711,2688,2714,2697,2716,2707,2704,2693,2697,2699,2719,2707,2697,2694,2706,2697,2721,2709,2692,2699,2704,2702,2700,2721,2695,2686,2699,2698,2710,2703,2688,2691,2719,2713,2705,2697,2710,2711,2704,2714,2704,2697,close
2704,2704,2707,2720,2706,2702,2713,2709,2717,2706,2705,2720,2720,2702,2705,2704,2713,2716,2721,2706,2717,2700,2714,2707,2706,2704,2709,2711,2705,2720,2690,2717,2707,2710,2708,2710,2714,2704,2704,2704,2709,2701,2717,2697,2717,2701,2720,2699,2713,2693,2719,2701,2714,2707,2711,2693,2726,2704,2704,2711,2704,2715,2704,2704,2718,2700,2702,2716,2701,2719,2706,2703,2705,2707,2701,2719,2709,2699,2702,2723,2707,2704,2719,2703,2704,2707,2704,2711,2715,2701,2715,2703,2717,2703,2719,2703,2704,2713,2703,2716,2703,2709,2720,2693,2704,2718,2704,2717,2704,2705,2711,2704,2717,2705,2719,2704,2709,2711,2702,2722,2713,2704,2705,2706,2705,2719,2704,2704,2711,2710,2708,2720,2706,2706,2715,2707,2719,2698,2715,2703,2731,2698,2719,2708,2719,2705,2725,2698,2721,2703,2715,2704,2701,2719,2703,2717,2719,2688,2721,2704,2724,2711,2711,2697,2717,2697,2721,2698,2701,2713,2706,2706,2698,2717,2703,2713,2707,2706,2704,2720,2701,2720,2704,2715,2706,2704,2718,2695,2719,2704,2704,2717,2695,2699,2702,2707,2703,2717,2698,2710,2711,2704,2712,2701,2715,2715,2714,2701,2727,2704,2723,2690,2724,2698,2715,2713,2687,2706,2704,2710,2720,2704,2704,2701,2711,2711,2704,2725,2701,2707,2704,2711,2711,2704,2699,2704,2707,2709,2704,2711,2702,2704,2711,2705,2709,2713,2702,2706,2709,2711,2703,2709,2701,2704,2717,2701,2707,2706,2704,2704,2704,2719,2704,2714,2704,2701,2721,2699,2719,2709,2722,2693,2713,2700,2715,2709,2705,2705,2704,2715,2704,2722,2704,2706,2704,2721,2703,2721,2701,2712,2702,2713,2705,2704,2693,2710,2701,2715,2700,2719,close
2699,2704,2707,2703,2719,2706,2710,2703,2720,2706,2704,2720,2704,2700,2718,2705,2703,2719,2709,2699,2706,2713,2704,2725,2715,2704,2719,2699,2721,2704,2711,2699,2718,2702,2705,2719,2718,2693,2719,2703,2704,2718,2717,2705,2721,2705,2704,2718,2715,2693,2714,2704,2704,2720,2710,2704,2704,2703,2714,2704,2725,2687,2723,2700,2715,2699,2701,2714,2694,2719,2704,2723,2693,2705,2715,2710,2705,2709,2714,2701,2717,2704,2721,2704,2709,2717,2704,2721,2702,2718,2705,2704,2717,2710,2702,2719,2698,2709,2694,2720,2703,2719,2711,2704,2717,2704,2719,2703,2693,2709,2705,2713,2704,2705,2703,2703,2703,2714,2715,2699,2703,2702,2711,2704,2721,2699,2709,2705,2703,2722,2704,2704,2718,2695,2707,2701,2718,2711,2711,2706,2711,2703,2723,2699,2721,2703,2706,2711,2709,2701,2705,2705,2702,2714,2708,2714,2705,2710,2704,2715,2701,2719,2714,2705,2704,2720,2707,2703,2711,2700,2711,2704,2714,2702,2710,2699,2719,2701,2715,2702,2713,2688,2725,2704,2715,2704,2704,2709,2700,2715,2702,2715,2718,2696,2718,2699,2720,2704,2723,2705,2727,2705,2703,2714,2710,2697,2709,2699,2719,2704,2724,2693,2715,2709,2718,2706,2709,2703,2714,2700,2719,2710,2719,2686,2722,2704,2701,2718,2698,2713,2702,2719,2704,2714,2697,2707,2704,2715,2710,2699,2694,2719,2701,2704,2719,2700,2711,2704,2698,2713,2704,2716,2718,2704,2704,2704,2717,2715,2717,2693,2719,2702,2723,2702,2706,2701,2715,2710,2703,2715,2703,2722,2702,2722,2702,2718,2703,2705,2707,2717,2707,2704,2714,2699,2704,2704,2720,2699,2707,2686,2719,2703,2722,2708,2694,2716,2699,2710,2703,2709,close
2716,2707,2706,2720,2705,2714,2708,2704,2717,2707,2702,2713,2703,2714,2704,2718,2710,2701,2705,2694,2705,2699,2722,2703,2721,2700,2714,2704,2715,2703,2708,2726,2704,2702,2720,2701,2704,2699,2727,2707,2704,2718,2722,2707,2707,2707,2704,2717,2709,2720,2699,2719,2718,2704,2711,2709,2704,2716,2711,2701,2707,2695,2722,2707,2704,2715,2709,2686,2717,2706,2704,2720,2699,2704,2704,2719,2706,2703,2709,2705,2705,2709,2716,2707,2699,2722,2697,2719,2703,2714,2694,2717,2704,2718,2706,2719,2704,2704,2703,2718,2704,2721,2717,2694,2717,2702,2711,2712,2699,2700,2717,2700,2721,2699,2721,2688,2721,2701,2719,2710,2704,2711,2704,2706,2704,2714,2693,2703,2719,2707,2704,2713,2709,2694,2705,2704,2720,2708,2700,2704,2710,2703,2719,2699,2693,2709,2701,2711,2711,2704,2693,2709,2704,2697,2718,2704,2705,2695,2704,2705,2704,2718,2701,2711,2709,2718,2704,2714,2705,2695,2719,2709,2704,2714,2707,2702,2722,2702,2722,2704,2711,2690,2725,2702,2719,2705,2694,2704,2718,2707,2705,2707,2704,2705,2703,2709,2711,2708,2717,2704,2706,2714,2706,2715,2694,2714,2707,2707,2715,2704,2714,2700,2704,2710,2705,2710,2710,2704,2716,2704,2714,2709,2720,2693,2717,2701,2718,2703,2720,2699,2704,2707,2701,2717,2701,2687,2716,2700,2707,2704,2714,2692,2726,2704,2715,2710,2717,2699,2713,2713,2705,2718,2702,2714,2701,2722,2706,2706,2701,2719,2704,2704,2718,2704,2705,2719,2712,2701,2705,2709,2709,2707,2709,2717,2704,2704,2705,2702,2720,2704,2706,2715,2714,2704,2704,2717,2711,2699,2698,2717,2701,2703,2721,2704,2704,2709,2708,2717,2707,2715,close
2701,2705,2703,2706,2705,2715,2698,2720,2701,2704,2713,2705,2723,2687,2710,2695,2713,2699,2704,2718,2704,2707,2704,2717,2704,2725,2704,2710,2711,2700,2707,2702,2706,2714,2706,2701,2707,2700,2704,2717,2706,2693,2713,2703,2724,2704,2710,2715,2695,2708,2701,2707,2709,2701,2699,2712,2703,2718,2703,2718,2691,2705,2710,2702,2719,2703,2720,2703,2710,2703,2705,2712,2703,2703,2708,2704,2721,2704,2704,2704,2704,2709,2717,2703,2699,2708,2699,2713,2703,2705,2721,2706,2710,2706,2705,2721,2705,2719,2710,2704,2721,2701,2713,2697,2725,2710,2704,2719,2694,2722,2704,2702,2719,2707,2704,2689,2717,2704,2698,2711,2706,2707,2718,2699,2709,2717,2698,2714,2704,2703,2719,2704,2711,2703,2717,2703,2718,2706,2704,2710,2706,2719,2704,2719,2709,2719,2710,2704,2714,2704,2691,2704,2709,2707,2701,2714,2699,2710,2705,2721,2707,2704,2718,2703,2709,2702,2721,2703,2704,2722,2701,2706,2718,2698,2711,2717,2707,2699,2715,2699,2719,2703,2704,2717,2709,2699,2717,2704,2722,2711,2699,2716,2711,2710,2705,2705,2717,2700,2706,2690,2718,2703,2723,2704,2703,2715,2709,2718,2700,2719,2706,2717,2709,2715,2704,2717,2718,2692,2718,2702,2720,2702,2702,2713,2705,2719,2703,2719,2702,2717,2706,2713,2701,2721,2703,2694,2721,2707,2702,2711,2703,2704,2724,2702,2725,2706,2699,2711,2704,2706,2710,2699,2704,2715,2697,2714,2706,2701,2698,2698,2713,2702,2704,2721,2710,2702,2720,2711,2704,2721,2691,2695,2705,2704,2720,2705,2695,2699,2725,2717,2714,2703,2704,2721,2704,2721,2702,2721,2704,2691,2725,2707,2705,2703,2692,2706,2722,2704,2719,2704,close
2705,2717,2701,2718,2704,2714,2723,2701,2708,2697,2704,2721,2706,2695,2715,2698,2709,2719,2704,2704,2690,2706,2698,2713,2707,2718,2704,2710,2707,2715,2714,2706,2715,2699,2714,2699,2709,2711,2703,2709,2704,2705,2705,2704,2717,2699,2708,2701,2715,2694,2707,2711,2715,2698,2695,2701,2721,2707,2700,2705,2704,2702,2710,2705,2710,2704,2704,2717,2707,2723,2707,2715,2694,2709,2725,2704,2707,2709,2718,2703,2714,2705,2719,2705,2699,2715,2704,2710,2699,2711,2704,2707,2700,2713,2701,2722,2698,2707,2730,2708,2700,2709,2704,2720,2701,2721,2698,2707,2701,2704,2694,2706,2705,2711,2691,2702,2690,2709,2713,2707,2703,2704,2727,2706,2699,2704,2711,2687,2713,2697,2711,2711,2693,2717,2701,2703,2705,2717,2700,2700,2731,2704,2721,2705,2703,2688,2716,2695,2705,2713,2695,2705,2697,2710,2708,2709,2714,2701,2719,2703,2720,2704,2703,2705,2704,2717,2704,2711,2706,2697,2709,2694,2718,2695,2711,2710,2711,2704,2710,2697,2719,2699,2720,2699,2711,2701,2701,2699,2715,2702,2717,2698,2698,2704,2698,2707,2700,2711,2715,2699,2699,2709,2723,2704,2701,2711,2695,2706,2725,2704,2689,2704,2700,2707,2722,2705,2704,2690,2711,2725,2710,2698,2700,2722,2704,2718,2705,2719,2704,2702,2727,2703,2721,2704,2702,2704,2719,2695,2704,2720,2693,2703,2705,2707,2704,2710,2698,2707,2704,2709,2701,2714,2704,2687,2704,2715,2704,2717,2695,2727,2699,2724,2705,2719,2697,2704,2706,2715,2705,2715,2710,2704,2709,2720,2699,2707,2711,2700,2699,2703,2719,2704,2701,2705,2701,2706,2704,2720,2707,2707,2705,2714,2709,2717,2694,2697,2726,2707,2707,2704,close
2711,2701,2710,2694,2709,2701,2712,2702,2722,2703,2721,2704,2688,2719,2711,2706,2726,2704,2694,2704,2709,2705,2723,2704,2709,2695,2720,2703,2722,2704,2698,2703,2702,2719,2704,2713,2704,2702,2725,2701,2717,2704,2717,2691,2708,2695,2711,2702,2717,2691,2706,2695,2710,2699,2721,2694,2714,2701,2720,2704,2690,2718,2703,2715,2699,2709,2714,2701,2722,2704,2722,2704,2721,2708,2713,2698,2718,2701,2704,2691,2714,2724,2705,2704,2706,2701,2713,2703,2713,2698,2704,2714,2703,2705,2701,2711,2730,2704,2706,2698,2704,2722,2704,2699,2717,2693,2712,2719,2706,2706,2707,2695,2707,2705,2711,2702,2705,2702,2707,2706,2721,2704,2710,2699,2713,2698,2716,2697,2715,2713,2709,2694,2709,2719,2704,2719,2704,2711,2705,2699,2705,2698,2709,2707,2719,2694,2714,2703,2719,2706,2700,2706,2695,2706,2699,2714,2704,2711,2702,2714,2699,2707,2705,2705,2704,2709,2703,2715,2707,2707,2703,2719,2703,2704,2690,2713,2700,2709,2713,2707,2692,2704,2714,2702,2721,2704,2707,2705,2708,2717,2714,2699,2709,2722,2702,2716,2703,2720,2698,2713,2704,2714,2704,2718,2685,2704,2699,2711,2700,2705,2693,2710,2693,2709,2727,2704,2694,2699,2715,2703,2721,2704,2704,2703,2705,2720,2704,2720,2695,2706,2699,2714,2698,2715,2703,2711,2694,2710,2703,2709,2701,2698,2709,2692,2704,2723,2699,2710,2704,2706,2710,2703,2701,2726,2704,2713,2703,2720,2708,2695,2715,2704,2718,2704,2694,2708,2697,2709,2700,2710,2698,2704,2711,2711,2698,2707,2717,2697,2721,2700,2715,2706,2695,2707,2706,2721,2706,2704,2698,2715,2721,2710,2699,2709,2704,2706,2709,2706,2697,2704,close
2704,2695,2719,2700,2718,2701,2708,2699,2730,2703,2720,2700,2707,2701,2710,2701,2705,2711,2705,2704,2715,2704,2721,2704,2723,2692,2710,2699,2714,2703,2711,2702,2719,2702,2717,2703,2719,2700,2704,2699,2716,2703,2711,2701,2707,2699,2708,2718,2715,2694,2710,2693,2710,2702,2703,2696,2706,2701,2715,2702,2689,2706,2695,2715,2700,2716,2704,2709,2698,2711,2703,2709,2704,2697,2706,2707,2706,2694,2711,2686,2709,2699,2711,2719,2715,2703,2717,2704,2713,2702,2704,2704,2703,2713,2704,2716,2699,2699,2704,2707,2719,2704,2704,2701,2717,2704,2698,2705,2704,2687,2702,2717,2704,2717,2714,2690,2723,2704,2720,2703,2706,2706,2702,2715,2704,2719,2693,2713,2704,2709,2699,2706,2704,2698,2704,2707,2706,2717,2699,2704,2703,2704,2704,2709,2690,2704,2719,2704,2715,2699,2702,2692,2711,2698,2716,2701,2721,2691,2703,2703,2711,2695,2727,2699,2722,2702,2719,2704,2719,2698,2705,2698,2714,2695,2704,2705,2704,2709,2702,2715,2717,2694,2709,2703,2707,2699,2704,2701,2714,2695,2707,2698,2709,2694,2717,2701,2710,2697,2711,2695,2719,2704,2724,2704,2695,2700,2717,2710,2697,2705,2702,2706,2693,2705,2721,2704,2695,2701,2717,2704,2721,2704,2685,2708,2725,2704,2721,2704,2702,2709,2697,2709,2695,2710,2724,2701,2705,2705,2725,2705,2702,2690,2704,2725,2704,2713,2691,2706,2698,2704,2723,2704,2691,2705,2726,2704,2708,2704,2709,2710,2699,2717,2704,2721,2709,2713,2699,2709,2701,2709,2705,2703,2723,2699,2716,2707,2726,2704,2704,2704,2717,2704,2717,2709,2725,2704,2709,2707,2697,2704,2705,2716,2702,2715,2693,2705,2722,2706,2720,2703,close
2725,2702,2719,2704,2710,2702,2692,2709,2723,2704,2705,2704,2707,2714,2691,2705,2723,2705,2708,2692,2711,2714,2706,2693,2717,2698,2709,2704,2719,2700,2704,2717,2697,2714,2699,2711,2701,2694,2705,2706,2707,2718,2695,2719,2691,2709,2695,2710,2698,2704,2717,2702,2711,2701,2692,2713,2701,2711,2701,2711,2718,2698,2717,2703,2707,2719,2703,2704,2698,2705,2723,2705,2701,2718,2708,2714,2702,2719,2717,2704,2715,2702,2710,2699,2701,2699,2723,2698,2723,2704,2704,2697,2718,2706,2697,2704,2704,2713,2701,2713,2709,2703,2717,2695,2717,2699,2710,2723,2713,2704,2715,2695,2708,2699,2698,2717,2693,2704,2713,2702,2694,2704,2720,2710,2702,2705,2699,2704,2702,2711,2705,2719,2708,2702,2709,2694,2706,2701,2693,2715,2704,2710,2698,2717,2690,2705,2696,2704,2714,2704,2719,2697,2724,2704,2718,2708,2690,2704,2698,2709,2698,2710,2704,2699,2704,2699,2707,2719,2725,2690,2718,2695,2711,2699,2710,2704,2702,2718,2703,2721,2703,2706,2703,2710,2699,2721,2711,2697,2711,2706,2711,2698,2687,2695,2721,2704,2722,2703,2704,2721,2709,2698,2708,2725,2689,2717,2703,2711,2698,2708,2705,2719,2707,2709,2720,2710,2695,2721,2702,2705,2713,2707,2701,2708,2695,2707,2699,2711,2703,2699,2704,2705,2701,2704,2706,2689,2706,2695,2708,2704,2703,2704,2704,2707,2699,2707,2710,2689,2704,2714,2699,2709,2710,2697,2713,2698,2717,2699,2704,2705,2709,2703,2715,2704,2707,2716,2704,2719,2704,2709,2708,2689,2710,2697,2717,2701,2694,2715,2698,2707,2700,2709,2693,2714,2691,2706,2702,2719,2701,2714,2699,2717,2707,2717,2713,2694,2707,2716,2704,2707,close
2711,2698,2711,2705,2699,2710,2704,2700,2701,2701,2704,2703,2715,2709,2717,2706,2714,2708,2700,2701,2699,2715,2704,2721,2697,2715,2709,2705,2704,2698,2699,2721,2703,2709,2704,2698,2690,2688,2720,2705,2709,2714,2713,2702,2714,2704,2719,2705,2719,2687,2715,2701,2721,2703,2715,2699,2721,2707,2704,2721,2709,2703,2705,2711,2709,2704,2693,2691,2710,2699,2714,2704,2707,2693,2713,2695,2716,2703,2707,2702,2709,2718,2708,2726,2698,2720,2706,2717,2704,2709,2719,2704,2727,2710,2698,2709,2697,2714,2707,2699,2713,2699,2687,2714,2714,2699,2719,2704,2705,2690,2706,2705,2715,2699,2707,2695,2699,2714,2725,2718,2695,2710,2704,2707,2711,2699,2717,2706,2699,2707,2703,2721,2699,2704,2701,2706,2704,2719,2697,2710,2698,2718,2704,2703,2715,2699,2695,2696,2715,2699,2721,2704,2702,2699,2715,2706,2704,2709,2711,2695,2699,2702,2707,2698,2715,2711,2707,2707,2689,2719,2693,2717,2707,2699,2710,2703,2704,2719,2711,2704,2704,2695,2704,2696,2723,2714,2702,2704,2698,2705,2717,2711,2718,2688,2717,2699,2716,2706,2721,2704,2703,2694,2722,2712,2710,2704,2705,2706,2709,2713,2703,2697,2702,2725,2714,2707,2705,2705,2703,2722,2714,2709,2718,2713,2704,2699,2695,2722,2719,2707,2703,2699,2707,2719,2714,2697,2704,2697,2705,2712,2699,2688,2723,2721,2715,2704,2699,2707,2715,2718,2710,2695,2707,2730,2704,2698,2715,2704,2706,2705,2704,2709,2703,2718,2702,2707,2707,2725,2710,2704,2707,2698,2710,2695,2701,2704,2715,2709,2714,2704,2701,2701,2702,2723,2706,2699,2711,2710,2710,2689,2694,2722,2709,2706,2704,2713,2705,2703,2704,2699,close
2705,2714,2701,2715,2704,2701,2711,2709,2697,2700,2699,2720,2709,2693,2717,2704,2719,2703,2727,2704,2721,2704,2702,2710,2698,2704,2694,2713,2701,2708,2704,2689,2709,2699,2717,2703,2721,2702,2697,2695,2700,2720,2704,2703,2705,2699,2698,2716,2723,2719,2714,2711,2703,2697,2701,2711,2720,2705,2705,2699,2702,2702,2718,2711,2703,2700,2702,2701,2714,2706,2705,2701,2694,2689,2708,2705,2704,2714,2699,2722,2704,2696,2708,2704,2713,2702,2701,2704,2704,2710,2688,2711,2699,2723,2709,2714,2700,2718,2704,2723,2705,2722,2714,2698,2711,2695,2721,2704,2714,2704,2715,2703,2723,2703,2703,2711,2706,2715,2705,2715,2722,2688,2705,2699,2717,2701,2704,2698,2705,2695,2709,2706,2708,2708,2705,2710,2710,2695,2714,2695,2704,2701,2714,2700,2700,2704,2693,2711,2693,2715,2706,2725,2709,2709,2714,2723,2707,2698,2715,2699,2714,2698,2697,2704,2704,2715,2703,2719,2700,2717,2695,2710,2701,2711,2709,2699,2711,2699,2722,2705,2712,2709,2704,2709,2721,2704,2704,2704,2711,2725,2711,2701,2711,2695,2705,2722,2709,2714,2719,2692,2714,2703,2723,2704,2709,2717,2702,2695,2714,2699,2710,2700,2719,2699,2717,2699,2713,2705,2719,2704,2717,2704,2702,2719,2705,2691,2713,2703,2705,2704,2704,2722,2709,2702,2687,2704,2703,2717,2704,2719,2690,2729,2703,2716,2711,2701,2688,2725,2704,2717,2710,2722,2704,2702,2721,2703,2714,2704,2701,2704,2703,2709,2705,2720,2702,2707,2698,2706,2703,2714,2691,2707,2709,2709,2703,2715,2702,2695,2718,2704,2721,2705,2702,2699,2707,2701,2720,2703,2727,2708,2711,2707,2721,2707,2707,2719,2707,2720,2706,2721,close
2720,2694,2713,2699,2711,2699,2698,2716,2704,2718,2704,2710,2713,2707,2718,2699,2722,2704,2691,2711,2693,2707,2701,2714,2704,2725,2714,2723,2711,2698,2702,2706,2704,2711,2704,2720,2706,2691,2705,2697,2716,2709,2709,2706,2711,2695,2721,2698,2727,2701,2704,2707,2716,2706,2706,2700,2715,2720,2710,2695,2689,2715,2699,2717,2707,2703,2697,2709,2705,2699,2716,2703,2713,2711,2704,2704,2714,2699,2707,2702,2721,2702,2719,2701,2690,2715,2707,2711,2706,2706,2711,2702,2721,2698,2718,2704,2702,2711,2704,2717,2704,2716,2723,2693,2725,2704,2727,2704,2692,2707,2717,2707,2699,2709,2707,2721,2706,2701,2707,2721,2703,2702,2705,2709,2702,2705,2711,2697,2717,2698,2721,2704,2704,2701,2704,2704,2706,2709,2711,2691,2722,2695,2711,2699,2710,2701,2693,2707,2702,2711,2692,2720,2701,2711,2699,2717,2704,2710,2699,2714,2704,2712,2717,2687,2711,2701,2722,2701,2702,2714,2704,2714,2708,2721,2719,2687,2730,2706,2726,2706,2702,2719,2704,2711,2704,2711,2709,2704,2714,2701,2713,2707,2733,2697,2710,2704,2704,2713,2703,2695,2699,2710,2700,2721,2701,2719,2703,2716,2710,2697,2708,2698,2714,2704,2723,2704,2705,2698,2724,2703,2730,2706,2700,2702,2714,2723,2707,2698,2689,2711,2718,2704,2700,2706,2698,2702,2694,2718,2704,2720,2723,2700,2699,2713,2702,2715,2713,2689,2720,2704,2723,2704,2704,2698,2723,2702,2726,2704,2695,2707,2702,2714,2704,2717,2713,2697,2718,2697,2713,2699,2691,2703,2721,2708,2698,2707,2720,2700,2694,2708,2703,2716,2695,2697,2714,2704,2721,2706,2707,2697,2717,2695,2723,2706,2718,2701,2722,2702,2715,2711,close
2705,2698,2720,2702,2698,2706,2710,2703,2693,2711,2704,2704,2695,2707,2705,2711,2713,2725,2711,2689,2719,2710,2697,2714,2697,2699,2711,2704,2724,2708,2693,2700,2703,2718,2713,2704,2701,2719,2710,2695,2713,2698,2710,2701,2723,2707,2703,2721,2704,2704,2721,2702,2725,2705,2691,2707,2704,2714,2704,2699,2709,2705,2695,2709,2705,2713,2699,2711,2703,2694,2714,2705,2711,2704,2695,2707,2703,2717,2703,2721,2704,2701,2711,2698,2710,2695,2710,2704,2701,2718,2691,2718,2694,2716,2712,2699,2718,2695,2721,2704,2701,2713,2702,2704,2699,2698,2714,2703,2715,2699,2704,2714,2702,2718,2704,2697,2706,2703,2719,2704,2703,2707,2704,2716,2714,2704,2703,2730,2705,2702,2715,2703,2727,2700,2695,2714,2704,2717,2688,2725,2711,2710,2713,2703,2709,2699,2711,2703,2703,2714,2709,2688,2714,2697,2719,2709,2694,2720,2717,2699,2722,2705,2703,2687,2721,2706,2722,2704,2704,2701,2704,2707,2702,2711,2715,2693,2717,2702,2723,2711,2702,2703,2712,2699,2719,2706,2704,2707,2704,2717,2711,2702,2689,2725,2707,2690,2720,2704,2714,2698,2702,2720,2707,2699,2693,2711,2711,2720,2709,2699,2727,2699,2693,2705,2704,2725,2711,2704,2727,2708,2701,2721,2692,2715,2705,2697,2717,2706,2702,2704,2704,2701,2710,2691,2707,2688,2719,2705,2699,2715,2703,2704,2715,2707,2704,2715,2705,2704,2717,2701,2700,2713,2704,2704,2704,2713,2705,2704,2699,2704,2701,2711,2704,2702,2699,2697,2715,2705,2718,2706,2714,2715,2710,2703,2699,2701,2694,2705,2711,2695,2718,2704,2694,2702,2705,2707,2711,2701,2698,2702,2718,2707,2705,2713,2700,2701,2729,2701,2704,2714,close
2718,2689,2721,2706,2709,2699,2717,2704,2698,2709,2704,2704,2699,2704,2719,2704,2698,2711,2697,2702,2714,2699,2704,2711,2709,2679,2723,2707,2695,2715,2685,2709,2704,2698,2710,2702,2691,2703,2701,2716,2707,2700,2711,2704,2698,2707,2704,2697,2704,2689,2715,2699,2725,2710,2705,2701,2717,2709,2706,2721,2718,2691,2715,2709,2701,2717,2711,2708,2711,2705,2707,2704,2687,2720,2718,2715,2714,2707,2694,2711,2713,2704,2711,2703,2704,2697,2702,2697,2701,2695,2694,2704,2704,2714,2707,2719,2707,2707,2705,2710,2704,2720,2698,2694,2714,2717,2720,2709,2722,2703,2715,2707,2704,2721,2687,2704,2717,2709,2713,2707,2704,2695,2717,2701,2703,2709,2704,2715,2702,2722,2714,2702,2698,2714,2704,2698,2719,2705,2689,2718,2704,2698,2711,2705,2691,2694,2705,2698,2721,2708,2687,2699,2705,2695,2718,2701,2704,2707,2701,2719,2707,2697,2701,2705,2699,2719,2711,2703,2717,2719,2709,2709,2705,2704,2691,2691,2701,2715,2722,2721,2715,2690,2720,2708,2704,2720,2710,2719,2719,2706,2709,2704,2723,2703,2701,2711,2703,2699,2704,2717,2717,2710,2710,2708,2709,2707,2704,2704,2703,2704,2687,2718,2704,2714,2708,2697,2715,2698,2704,2715,2705,2722,2700,2701,2708,2702,2715,2707,2706,2704,2701,2707,2701,2722,2706,2705,2705,2717,2708,2697,2694,2711,2721,2707,2709,2707,2707,2710,2709,2704,2709,2703,2687,2706,2710,2699,2715,2703,2703,2714,2705,2701,2701,2694,2704,2691,2704,2709,2703,2718,2689,2717,2703,2717,2714,2703,2697,2716,2711,2695,2717,2704,2697,2704,2697,2697,2725,2707,2709,2699,2703,2698,2711,2701,2682,2709,2710,2699,2718,2704,close
2706,2710,2695,2718,2707,2702,2690,2690,2721,2713,2717,2704,2691,2700,2717,2717,2717,2709,2711,2695,2694,2709,2705,2697,2709,2699,2694,2714,2702,2721,2720,2719,2711,2707,2713,2701,2704,2687,2714,2703,2707,2703,2705,2704,2703,2697,2701,2700,2713,2704,2719,2705,2702,2715,2697,2716,2709,2707,2719,2699,2707,2698,2704,2699,2714,2704,2691,2686,2714,2710,2704,2699,2702,2704,2720,2704,2698,2720,2720,2693,2710,2701,2695,2708,2711,2698,2701,2693,2717,2713,2722,2699,2719,2711,2707,2698,2710,2704,2711,2706,2704,2701,2706,2706,2711,2702,2702,2694,2682,2699,2710,2705,2705,2719,2709,2706,2704,2701,2702,2704,2698,2704,2710,2702,2710,2703,2709,2704,2695,2705,2698,2715,2704,2707,2703,2722,2704,2699,2681,2699,2699,2711,2709,2704,2695,2721,2713,2706,2704,2695,2707,2704,2710,2702,2705,2702,2683,2705,2710,2717,2713,2706,2704,2682,2717,2699,2722,2709,2705,2717,2709,2704,2704,2704,2711,2704,2704,2695,2698,2720,2715,2691,2705,2709,2702,2721,2719,2705,2705,2709,2705,2699,2700,2711,2709,2710,2707,2704,2718,2704,2701,2697,2698,2717,2705,2683,2727,2721,2719,2713,2693,2694,2725,2717,2716,2709,2702,2699,2694,2699,2698,2717,2711,2702,2694,2715,2704,2715,2704,2691,2721,2704,2725,2708,2688,2715,2720,2709,2710,2706,2703,2715,2711,2711,2707,2703,2689,2708,2701,2721,2706,2698,2690,2703,2695,2714,2709,2704,2704,2704,2715,2694,2711,2705,2705,2699,2711,2703,2722,2706,2694,2719,2708,2721,2715,2700,2699,2715,2703,2699,2697,2704,2684,2721,2722,2717,2709,2710,2711,2691,2703,2709,2709,2704,2719,2704,2699,2707,2699,2717,close
2640,2640,2649,2640,2642,2640,2649,2640,2641,2642,2646,2646,2638,2643,2643,2642,2644,2645,2633,2625,2637,2634,2645,2640,2640,2638,2641,2645,2641,2637,2640,2638,2641,2634,2633,2641,2645,2640,2635,2636,2637,2646,2651,2640,2645,2641,2641,2640,2635,2625,2640,2642,2645,2642,2640,2643,2641,2639,2643,2644,2637,2635,2640,2636,2646,2643,2634,2623,2638,2645,2645,2644,2631,2626,2652,2641,2645,2640,2635,2639,2646,2646,2646,2641,2640,2627,2633,2645,2643,2645,2640,2639,2644,2643,2644,2642,2635,2639,2641,2633,2638,2633,2640,2640,2642,2640,2644,2640,2635,2631,2644,2637,2651,2649,2650,2644,2643,2640,2640,2635,2629,2624,2644,2647,2647,2640,2640,2647,2643,2643,2643,2640,2628,2645,2640,2644,2644,2638,2640,2644,2651,2641,2640,2639,2640,2637,2641,2640,2639,2640,2636,2638,2645,2640,2641,2635,2630,2640,2645,2640,2641,2640,2646,2642,2644,2639,2643,2640,2640,2624,2650,2646,2645,2646,2625,2631,2635,2650,2646,2650,2640,2634,2640,2637,2643,2641,2639,2633,2646,2637,2631,2640,2645,2639,2643,2639,2644,2642,2637,2631,2642,2643,2646,2643,2637,2645,2650,2649,2645,2641,2639,2647,2649,2646,2642,2643,2624,2637,2653,2647,2646,2640,2635,2637,2644,2646,2641,2640,2644,2640,2641,2640,2642,2641,2640,2636,2639,2649,2640,2638,2624,2626,2633,2633,2650,2642,2635,2640,2645,2646,2646,2641,2643,2647,2640,2642,2640,2637,2634,2640,2651,2643,2645,2640,2631,2641,2647,2651,2647,2640,2653,2639,2640,2640,2641,2640,2641,2629,2647,2640,2639,2645,2624,2619,2647,2655,2650,2646,2640,2640,2640,2645,2645,2630,2637,2633,2653,2635,2646,2646,close
2641,2630,2645,2640,2634,2642,2633,2631,2649,2646,2651,2649,2637,2634,2647,2640,2649,2646,2635,2651,2640,2646,2645,2640,2635,2641,2645,2647,2643,2642,2631,2628,2634,2640,2636,2629,2633,2626,2644,2643,2639,2642,2637,2638,2655,2640,2641,2640,2638,2641,2635,2636,2642,2639,2640,2637,2641,2640,2641,2647,2640,2640,2643,2643,2643,2641,2635,2631,2639,2640,2641,2635,2641,2642,2653,2646,2647,2640,2637,2642,2647,2642,2642,2640,2650,2640,2635,2645,2640,2641,2631,2635,2645,2643,2643,2640,2643,2637,2647,2640,2640,2647,2640,2634,2641,2646,2640,2638,2644,2640,2640,2640,2640,2640,2641,2630,2648,2642,2643,2643,2636,2647,2643,2635,2640,2638,2645,2636,2640,2636,2639,2631,2640,2640,2642,2640,2650,2640,2638,2646,2646,2640,2644,2647,2618,2626,2653,2642,2650,2641,2641,2640,2639,2633,2640,2638,2646,2630,2633,2641,2640,2631,2638,2641,2645,2640,2638,2635,2634,2629,2643,2638,2640,2642,2627,2645,2639,2640,2646,2639,2635,2637,2643,2633,2643,2640,2636,2629,2641,2628,2640,2647,2641,2635,2634,2639,2640,2647,2640,2635,2641,2631,2631,2640,2641,2631,2655,2633,2647,2639,2635,2637,2657,2639,2640,2648,2631,2635,2647,2640,2642,2650,2640,2636,2647,2641,2640,2643,2645,2637,2639,2641,2646,2631,2638,2633,2651,2640,2640,2637,2637,2625,2641,2637,2640,2643,2630,2634,2640,2638,2634,2637,2647,2645,2643,2637,2640,2645,2640,2627,2642,2643,2645,2633,2634,2635,2641,2640,2646,2640,2629,2635,2638,2635,2646,2635,2637,2645,2647,2633,2643,2640,2640,2635,2639,2639,2631,2642,2649,2626,2646,2641,2635,2645,2649,2642,2643,2645,2638,2644,close
2640,2637,2656,2639,2645,2643,2646,2635,2640,2634,2640,2630,2640,2633,2635,2640,2645,2640,2626,2643,2650,2639,2640,2638,2641,2637,2643,2639,2644,2639,2643,2638,2637,2643,2641,2634,2626,2651,2639,2641,2642,2640,2635,2639,2649,2640,2640,2637,2647,2647,2643,2637,2639,2629,2639,2642,2637,2642,2647,2635,2642,2640,2647,2642,2642,2645,2638,2628,2635,2631,2650,2642,2640,2638,2640,2634,2631,2642,2635,2623,2643,2640,2650,2642,2631,2635,2643,2642,2638,2647,2635,2622,2655,2642,2642,2647,2638,2642,2640,2647,2637,2642,2640,2635,2646,2637,2647,2641,2634,2635,2650,2644,2640,2642,2626,2640,2640,2636,2645,2640,2640,2633,2650,2635,2653,2640,2640,2627,2645,2640,2639,2649,2647,2629,2649,2640,2641,2644,2640,2624,2651,2638,2645,2643,2637,2639,2645,2632,2643,2640,2640,2643,2650,2640,2647,2642,2625,2627,2640,2647,2647,2637,2615,2646,2646,2630,2642,2639,2639,2626,2650,2640,2642,2643,2625,2641,2645,2635,2644,2643,2642,2641,2650,2639,2640,2642,2630,2641,2643,2635,2643,2638,2640,2623,2647,2640,2649,2645,2643,2633,2650,2639,2642,2641,2635,2631,2657,2642,2640,2645,2647,2639,2641,2640,2639,2635,2651,2650,2653,2640,2641,2641,2634,2623,2651,2640,2646,2641,2624,2628,2637,2634,2642,2641,2639,2642,2639,2633,2646,2639,2631,2634,2637,2642,2641,2639,2647,2634,2642,2643,2649,2640,2634,2630,2643,2639,2639,2647,2633,2646,2638,2643,2640,2634,2644,2617,2646,2634,2642,2642,2639,2624,2640,2634,2651,2646,2633,2639,2647,2634,2640,2631,2631,2638,2636,2634,2637,2640,2627,2627,2647,2640,2642,2640,2640,2638,2640,2645,2640,2635,close
2637,2641,2640,2645,2651,2641,2640,2628,2644,2638,2646,2639,2641,2640,2641,2645,2640,2643,2627,2650,2640,2630,2645,2641,2637,2639,2645,2640,2641,2642,2634,2631,2643,2637,2646,2636,2637,2656,2640,2639,2647,2646,2640,2644,2642,2640,2641,2650,2637,2640,2635,2640,2640,2645,2626,2639,2639,2633,2647,2637,2623,2653,2642,2645,2647,2638,2631,2640,2637,2637,2647,2640,2630,2645,2642,2646,2633,2645,2641,2624,2634,2643,2640,2645,2640,2635,2639,2645,2639,2645,2646,2622,2642,2633,2642,2640,2639,2642,2640,2629,2645,2640,2630,2640,2640,2631,2645,2637,2637,2639,2637,2641,2641,2637,2627,2640,2635,2643,2642,2646,2647,2637,2639,2645,2639,2640,2649,2625,2642,2637,2638,2643,2657,2627,2638,2640,2635,2643,2645,2656,2642,2633,2649,2634,2647,2646,2640,2641,2639,2640,2639,2627,2642,2646,2641,2635,2638,2646,2643,2640,2634,2644,2625,2639,2650,2630,2647,2640,2640,2644,2640,2651,2639,2640,2626,2641,2637,2641,2644,2643,2643,2625,2638,2638,2647,2642,2640,2640,2649,2641,2640,2652,2627,2639,2635,2641,2647,2628,2641,2659,2640,2638,2647,2637,2642,2641,2647,2640,2651,2639,2628,2635,2641,2640,2647,2639,2622,2639,2629,2642,2645,2639,2640,2646,2641,2641,2638,2645,2655,2645,2650,2640,2640,2638,2640,2634,2640,2651,2641,2650,2635,2640,2635,2645,2640,2646,2625,2645,2646,2638,2649,2640,2621,2640,2633,2651,2646,2635,2643,2640,2653,2639,2647,2640,2630,2640,2641,2641,2640,2640,2623,2638,2641,2645,2645,2651,2630,2647,2643,2631,2645,2639,2650,2624,2650,2640,2640,2646,2635,2637,2642,2642,2639,2645,2637,2640,2642,2645,2639,2643,close
2638,2641,2636,2642,2642,2640,2641,2638,2638,2642,2641,2644,2654,2627,2647,2639,2641,2645,2629,2629,2635,2636,2640,2641,2650,2638,2641,2640,2647,2639,2624,2635,2638,2645,2641,2646,2631,2649,2630,2640,2641,2649,2634,2631,2650,2637,2651,2640,2629,2642,2643,2634,2647,2639,2627,2641,2656,2641,2639,2647,2655,2639,2642,2641,2642,2643,2629,2624,2653,2640,2638,2645,2631,2652,2637,2638,2647,2640,2629,2651,2640,2643,2643,2639,2633,2640,2624,2643,2640,2645,2638,2640,2646,2637,2633,2642,2635,2650,2640,2650,2639,2641,2637,2640,2640,2637,2650,2641,2627,2640,2637,2639,2647,2639,2624,2642,2639,2644,2640,2641,2644,2635,2650,2640,2637,2645,2643,2624,2646,2639,2641,2646,2640,2624,2640,2640,2633,2640,2639,2624,2647,2640,2642,2641,2622,2646,2633,2641,2642,2639,2640,2640,2642,2641,2639,2651,2640,2629,2640,2640,2653,2640,2647,2649,2633,2643,2642,2631,2641,2629,2647,2638,2649,2640,2640,2631,2626,2643,2634,2650,2639,2635,2643,2635,2638,2641,2638,2629,2647,2647,2635,2645,2621,2642,2649,2637,2647,2639,2639,2650,2640,2647,2640,2640,2640,2642,2637,2639,2650,2639,2640,2653,2639,2644,2650,2639,2640,2631,2652,2640,2641,2643,2626,2642,2641,2627,2642,2639,2629,2649,2649,2640,2637,2641,2638,2643,2640,2646,2640,2642,2622,2651,2641,2640,2645,2639,2653,2640,2639,2638,2645,2640,2631,2641,2640,2630,2647,2636,2626,2636,2647,2643,2639,2645,2640,2647,2639,2644,2640,2640,2626,2639,2637,2641,2647,2634,2639,2659,2643,2639,2651,2637,2629,2640,2645,2626,2643,2639,2627,2638,2627,2643,2641,2641,2640,2639,2645,2640,2642,2647,close
2633,2644,2640,2641,2643,2637,2635,2624,2645,2640,2638,2646,2634,2633,2642,2641,2640,2644,2643,2635,2633,2650,2640,2643,2627,2629,2642,2634,2646,2638,2621,2639,2644,2631,2642,2639,2631,2646,2635,2635,2650,2640,2647,2639,2644,2641,2638,2649,2640,2640,2634,2641,2649,2639,2633,2645,2627,2640,2650,2638,2626,2638,2649,2635,2643,2646,2621,2634,2639,2649,2640,2637,2629,2651,2643,2646,2646,2636,2647,2638,2640,2642,2641,2646,2644,2627,2647,2639,2635,2645,2644,2628,2637,2645,2640,2642,2624,2649,2647,2630,2649,2642,2640,2643,2640,2650,2644,2640,2646,2643,2653,2639,2647,2640,2662,2646,2646,2643,2634,2647,2647,2640,2639,2631,2647,2640,2640,2630,2633,2643,2640,2643,2637,2651,2624,2646,2644,2640,2645,2645,2640,2643,2639,2641,2640,2627,2650,2640,2637,2652,2645,2640,2631,2647,2640,2637,2636,2653,2643,2634,2645,2640,2632,2639,2638,2641,2641,2647,2618,2642,2635,2645,2654,2641,2629,2635,2644,2635,2644,2640,2640,2638,2638,2642,2644,2635,2647,2641,2633,2645,2639,2640,2629,2654,2633,2647,2638,2640,2634,2640,2640,2636,2645,2640,2636,2637,2640,2643,2649,2640,2628,2647,2643,2634,2653,2638,2638,2643,2640,2637,2647,2640,2654,2631,2640,2646,2643,2643,2635,2631,2646,2638,2644,2646,2646,2644,2646,2640,2640,2651,2651,2655,2637,2635,2647,2641,2641,2649,2640,2635,2646,2638,2639,2633,2635,2646,2642,2638,2634,2640,2645,2636,2647,2640,2635,2640,2640,2635,2645,2640,2646,2646,2635,2651,2646,2638,2623,2645,2642,2638,2649,2640,2637,2633,2639,2635,2653,2642,2641,2638,2641,2642,2651,2640,2634,2638,2627,2644,2641,2630,close
2631,2652,2639,2638,2643,2638,2648,2626,2649,2639,2651,2642,2633,2644,2652,2643,2640,2652,2628,2647,2643,2645,2647,2640,2622,2649,2640,2646,2642,2640,2640,2640,2647,2640,2640,2643,2640,2643,2639,2640,2640,2646,2640,2641,2645,2647,2645,2634,2640,2640,2650,2641,2634,2642,2640,2637,2638,2642,2643,2647,2640,2631,2641,2638,2642,2645,2646,2631,2643,2640,2639,2640,2626,2648,2630,2644,2645,2640,2628,2651,2631,2647,2640,2640,2645,2625,2637,2643,2638,2643,2641,2649,2640,2638,2645,2641,2640,2649,2638,2647,2643,2638,2645,2626,2640,2643,2642,2642,2640,2636,2640,2635,2643,2642,2641,2627,2640,2639,2638,2645,2640,2626,2641,2640,2641,2647,2633,2629,2645,2640,2644,2640,2638,2640,2649,2642,2635,2651,2640,2627,2645,2641,2638,2643,2645,2640,2642,2647,2640,2646,2631,2637,2635,2640,2640,2635,2627,2640,2640,2640,2643,2641,2640,2637,2635,2641,2647,2640,2645,2637,2640,2636,2651,2640,2653,2640,2653,2640,2642,2647,2629,2631,2648,2635,2646,2646,2640,2623,2643,2638,2649,2642,2630,2650,2640,2649,2640,2631,2640,2633,2641,2642,2637,2644,2641,2646,2641,2651,2647,2640,2639,2622,2640,2634,2650,2641,2637,2636,2640,2640,2640,2649,2624,2652,2646,2635,2645,2640,2638,2654,2637,2642,2642,2635,2642,2640,2640,2633,2647,2640,2655,2638,2640,2643,2650,2645,2619,2649,2640,2640,2641,2643,2638,2624,2643,2640,2637,2646,2639,2626,2640,2640,2640,2645,2646,2624,2643,2649,2640,2643,2648,2636,2655,2640,2654,2640,2635,2643,2654,2641,2639,2642,2627,2644,2630,2642,2647,2633,2630,2652,2640,2633,2647,2640,2653,2647,2647,2639,2631,2640,close
2638,2643,2637,2650,2650,2640,2629,2645,2630,2646,2645,2635,2653,2641,2638,2642,2641,2650,2638,2629,2631,2640,2642,2635,2650,2644,2627,2645,2640,2647,2645,2645,2652,2642,2640,2651,2637,2627,2640,2645,2633,2643,2646,2629,2638,2641,2639,2648,2647,2634,2643,2643,2640,2633,2635,2627,2648,2638,2646,2643,2640,2636,2638,2645,2646,2640,2624,2627,2638,2645,2644,2645,2645,2639,2638,2645,2638,2641,2655,2627,2635,2646,2644,2640,2638,2640,2631,2642,2644,2635,2645,2642,2650,2640,2646,2639,2629,2646,2643,2629,2645,2633,2640,2651,2638,2645,2645,2629,2666,2643,2639,2643,2641,2646,2637,2641,2626,2641,2639,2640,2633,2650,2636,2651,2643,2635,2640,2640,2645,2633,2646,2640,2655,2647,2639,2640,2640,2636,2640,2637,2627,2646,2640,2650,2653,2623,2649,2639,2643,2645,2624,2640,2637,2645,2649,2640,2641,2639,2640,2641,2633,2647,2643,2624,2646,2650,2640,2646,2641,2623,2651,2633,2640,2647,2651,2625,2643,2639,2643,2643,2637,2638,2640,2640,2647,2641,2643,2624,2651,2643,2640,2650,2642,2645,2633,2646,2645,2635,2640,2626,2640,2639,2646,2640,2640,2640,2642,2647,2638,2643,2640,2629,2647,2645,2630,2643,2645,2622,2640,2637,2646,2635,2631,2641,2652,2639,2637,2643,2640,2640,2640,2639,2646,2633,2633,2639,2649,2641,2649,2631,2647,2634,2651,2635,2640,2641,2643,2641,2629,2644,2640,2640,2650,2645,2641,2643,2637,2641,2649,2643,2640,2640,2645,2640,2650,2642,2651,2641,2640,2643,2637,2627,2640,2643,2633,2641,2635,2628,2651,2640,2638,2646,2643,2621,2651,2643,2640,2640,2629,2644,2641,2645,2646,2639,2641,2619,2640,2637,2642,2645,close
2646,2646,2636,2647,2646,2631,2657,2638,2642,2635,2646,2642,2638,2650,2640,2643,2642,2630,2637,2639,2637,2647,2643,2639,2629,2640,2630,2643,2643,2635,2637,2640,2647,2642,2637,2641,2625,2647,2638,2634,2647,2640,2642,2639,2630,2643,2643,2633,2645,2643,2640,2641,2641,2641,2640,2630,2641,2640,2641,2641,2635,2637,2646,2646,2651,2635,2643,2640,2646,2640,2635,2645,2638,2638,2651,2644,2640,2627,2627,2634,2635,2644,2641,2640,2639,2645,2645,2641,2636,2641,2640,2643,2629,2641,2642,2644,2658,2636,2645,2640,2638,2646,2645,2642,2634,2650,2643,2639,2647,2624,2652,2639,2642,2643,2640,2640,2637,2639,2638,2637,2650,2654,2643,2640,2650,2646,2638,2638,2640,2638,2640,2633,2624,2645,2631,2646,2645,2635,2645,2634,2646,2641,2651,2643,2642,2651,2635,2636,2640,2629,2631,2634,2638,2633,2647,2642,2629,2635,2649,2651,2646,2643,2640,2628,2632,2628,2654,2643,2655,2640,2638,2630,2635,2645,2655,2647,2640,2645,2643,2638,2651,2640,2635,2640,2640,2650,2657,2634,2642,2638,2640,2637,2637,2640,2651,2643,2645,2642,2658,2635,2643,2640,2637,2646,2627,2637,2640,2644,2649,2645,2640,2638,2634,2637,2630,2640,2654,2642,2640,2640,2645,2634,2640,2631,2646,2638,2642,2635,2661,2629,2634,2647,2640,2643,2651,2641,2629,2643,2640,2635,2657,2626,2640,2639,2638,2643,2630,2626,2640,2638,2650,2640,2634,2640,2643,2640,2643,2646,2643,2639,2637,2640,2643,2631,2630,2640,2643,2640,2640,2641,2635,2650,2640,2645,2651,2638,2634,2624,2645,2641,2640,2646,2654,2641,2644,2638,2647,2633,2649,2634,2646,2639,2643,2640,2638,2642,2648,2631,2651,2640,close
2639,2653,2654,2631,2650,2642,2637,2650,2641,2637,2645,2639,2639,2646,2640,2636,2646,2639,2627,2645,2627,2642,2643,2640,2642,2627,2643,2640,2640,2650,2639,2642,2639,2633,2656,2647,2627,2640,2640,2643,2640,2642,2640,2630,2646,2637,2645,2643,2640,2638,2640,2634,2647,2635,2644,2638,2638,2647,2644,2640,2641,2639,2637,2643,2645,2650,2645,2643,2641,2637,2635,2647,2647,2624,2640,2641,2640,2644,2642,2637,2646,2645,2640,2647,2624,2642,2647,2634,2643,2640,2640,2633,2642,2635,2649,2644,2653,2625,2649,2635,2642,2647,2633,2638,2648,2640,2649,2643,2640,2623,2640,2644,2640,2640,2643,2630,2647,2640,2640,2640,2634,2640,2650,2639,2646,2640,2634,2635,2642,2635,2653,2638,2631,2635,2640,2631,2645,2640,2649,2635,2633,2642,2639,2647,2638,2633,2638,2642,2646,2641,2643,2640,2635,2643,2647,2635,2640,2624,2625,2646,2640,2653,2649,2650,2635,2639,2647,2640,2624,2638,2640,2635,2647,2638,2638,2634,2644,2642,2640,2643,2624,2639,2642,2650,2640,2637,2639,2634,2629,2640,2642,2634,2637,2635,2635,2641,2640,2642,2641,2643,2635,2640,2651,2641,2640,2630,2641,2639,2648,2637,2637,2630,2645,2640,2642,2638,2640,2618,2640,2638,2642,2643,2637,2640,2650,2641,2640,2642,2640,2649,2653,2641,2638,2647,2646,2625,2652,2640,2639,2650,2647,2637,2648,2634,2650,2641,2653,2626,2634,2640,2639,2642,2638,2631,2647,2640,2639,2647,2653,2625,2647,2643,2637,2651,2646,2646,2635,2639,2647,2637,2656,2634,2639,2644,2641,2641,2640,2640,2630,2647,2641,2640,2638,2635,2631,2647,2645,2640,2641,2631,2639,2643,2647,2633,2635,2629,2651,2641,2642,2637,close
2647,2627,2627,2647,2641,2650,2647,2631,2639,2646,2641,2639,2646,2634,2638,2647,2650,2642,2643,2624,2643,2640,2649,2640,2641,2626,2645,2645,2630,2642,2658,2640,2647,2641,2640,2649,2640,2642,2645,2646,2639,2646,2647,2652,2641,2645,2652,2645,2654,2625,2641,2640,2647,2641,2657,2639,2652,2640,2651,2640,2639,2629,2641,2639,2645,2646,2642,2642,2634,2650,2640,2643,2652,2635,2638,2646,2640,2645,2654,2635,2641,2646,2640,2640,2658,2640,2646,2645,2650,2647,2638,2626,2640,2645,2651,2647,2641,2633,2640,2642,2641,2648,2640,2640,2640,2643,2641,2645,2639,2653,2640,2640,2643,2642,2633,2645,2644,2646,2643,2646,2650,2642,2646,2649,2642,2638,2640,2654,2640,2649,2641,2645,2638,2628,2640,2642,2645,2647,2652,2637,2641,2641,2646,2643,2639,2650,2640,2645,2643,2645,2645,2637,2636,2650,2643,2642,2655,2637,2649,2642,2650,2640,2654,2631,2640,2639,2653,2641,2638,2647,2634,2645,2640,2640,2640,2653,2647,2640,2645,2641,2643,2629,2651,2642,2640,2649,2647,2640,2640,2640,2645,2643,2655,2642,2647,2640,2640,2645,2653,2640,2647,2647,2639,2650,2662,2630,2640,2636,2646,2645,2640,2640,2640,2651,2642,2650,2629,2645,2641,2651,2643,2641,2652,2626,2640,2639,2646,2644,2640,2647,2642,2642,2641,2647,2635,2637,2649,2647,2641,2646,2647,2646,2647,2645,2645,2643,2637,2634,2638,2643,2640,2650,2653,2637,2651,2643,2649,2642,2640,2645,2639,2643,2638,2647,2641,2655,2638,2640,2643,2642,2653,2630,2654,2644,2645,2644,2635,2630,2640,2644,2641,2640,2640,2640,2646,2641,2640,2645,2631,2645,2640,2640,2642,2649,2640,2635,2652,2638,2647,2640,close
2661,2631,2646,2646,2640,2643,2639,2642,2641,2640,2645,2640,2649,2653,2640,2642,2641,2647,2658,2639,2649,2640,2646,2647,2633,2643,2639,2645,2647,2640,2643,2633,2636,2641,2640,2647,2643,2642,2640,2649,2647,2640,2625,2638,2643,2649,2640,2650,2627,2640,2638,2644,2643,2645,2646,2640,2639,2641,2644,2647,2655,2640,2650,2641,2641,2646,2647,2631,2643,2641,2647,2641,2641,2640,2639,2644,2643,2647,2638,2645,2644,2646,2643,2639,2637,2643,2646,2640,2653,2640,2629,2643,2637,2647,2642,2640,2653,2630,2648,2641,2653,2641,2653,2637,2645,2643,2650,2639,2643,2642,2651,2645,2640,2653,2645,2640,2637,2643,2640,2649,2633,2647,2647,2640,2643,2640,2640,2639,2649,2638,2642,2650,2653,2636,2641,2640,2645,2642,2641,2640,2640,2647,2649,2649,2633,2638,2643,2641,2640,2642,2638,2651,2635,2644,2640,2647,2643,2637,2638,2635,2650,2640,2641,2642,2639,2642,2640,2645,2637,2656,2640,2644,2646,2646,2651,2640,2640,2640,2647,2641,2638,2638,2643,2645,2651,2640,2638,2644,2640,2641,2641,2641,2650,2624,2653,2640,2646,2647,2649,2638,2642,2643,2645,2646,2635,2637,2652,2640,2654,2640,2644,2627,2635,2647,2640,2639,2645,2642,2647,2640,2650,2638,2640,2640,2642,2640,2646,2640,2638,2639,2638,2639,2647,2643,2627,2638,2646,2639,2643,2646,2635,2634,2641,2639,2650,2642,2645,2634,2640,2640,2646,2640,2650,2626,2639,2637,2640,2643,2647,2641,2654,2641,2641,2643,2650,2651,2639,2645,2640,2646,2647,2634,2642,2641,2652,2645,2641,2640,2640,2641,2645,2642,2643,2653,2645,2648,2641,2643,2650,2639,2640,2646,2640,2644,2641,2640,2641,2640,2650,2644,close
2638,2629,2650,2642,2645,2647,2634,2631,2634,2647,2641,2640,2651,2640,2654,2640,2640,2650,2640,2638,2645,2643,2649,2641,2639,2633,2643,2643,2643,2653,2642,2635,2645,2643,2643,2647,2640,2640,2644,2640,2646,2650,2647,2640,2641,2643,2643,2643,2640,2625,2653,2643,2645,2647,2631,2640,2645,2640,2653,2643,2637,2645,2640,2641,2643,2647,2642,2650,2645,2640,2650,2639,2629,2638,2638,2647,2640,2647,2630,2638,2638,2649,2645,2640,2637,2629,2637,2642,2640,2643,2641,2638,2640,2647,2640,2643,2639,2634,2645,2638,2649,2637,2640,2644,2641,2646,2640,2643,2640,2625,2651,2640,2649,2645,2637,2624,2645,2640,2647,2643,2643,2635,2640,2640,2645,2645,2649,2640,2642,2643,2641,2645,2641,2635,2639,2646,2643,2644,2635,2631,2635,2642,2638,2643,2651,2627,2640,2649,2640,2644,2652,2640,2642,2640,2637,2647,2626,2640,2643,2643,2643,2637,2641,2640,2643,2641,2640,2640,2631,2635,2637,2653,2640,2640,2638,2634,2639,2640,2649,2641,2634,2642,2640,2642,2643,2646,2648,2657,2641,2641,2647,2640,2652,2635,2651,2640,2646,2642,2625,2647,2640,2639,2645,2639,2647,2647,2645,2649,2640,2639,2639,2640,2647,2639,2640,2647,2642,2635,2641,2645,2651,2647,2629,2639,2647,2640,2643,2647,2630,2640,2638,2647,2649,2640,2647,2646,2643,2647,2641,2647,2639,2650,2641,2640,2649,2646,2638,2642,2646,2641,2649,2645,2640,2625,2647,2638,2643,2645,2640,2638,2651,2643,2640,2647,2635,2640,2646,2645,2646,2639,2640,2650,2629,2645,2640,2640,2647,2637,2642,2640,2642,2643,2654,2639,2634,2646,2642,2641,2654,2640,2631,2652,2645,2640,2645,2639,2641,2638,2649,2640,close
2638,2635,2649,2646,2645,2640,2647,2642,2641,2640,2643,2640,2629,2653,2641,2641,2650,2639,2645,2634,2647,2641,2643,2639,2650,2639,2649,2644,2639,2646,2646,2636,2642,2643,2645,2650,2653,2637,2645,2641,2647,2640,2637,2639,2640,2640,2654,2641,2647,2629,2646,2646,2653,2645,2629,2631,2649,2642,2645,2641,2629,2639,2640,2638,2646,2643,2639,2641,2650,2644,2640,2640,2641,2636,2640,2654,2643,2642,2648,2650,2640,2643,2645,2640,2637,2643,2646,2640,2640,2646,2634,2640,2641,2640,2654,2643,2623,2637,2633,2644,2649,2641,2639,2624,2646,2643,2641,2647,2639,2642,2638,2645,2639,2640,2637,2640,2642,2650,2643,2642,2651,2645,2640,2640,2643,2635,2638,2629,2642,2638,2649,2643,2634,2640,2642,2646,2646,2638,2640,2631,2633,2643,2641,2645,2654,2643,2647,2641,2641,2650,2637,2641,2641,2641,2646,2642,2647,2654,2640,2640,2649,2643,2642,2640,2646,2640,2647,2640,2624,2640,2640,2640,2640,2641,2634,2634,2637,2645,2641,2643,2635,2641,2633,2649,2647,2639,2646,2636,2651,2640,2645,2645,2642,2643,2635,2649,2644,2640,2639,2621,2655,2637,2649,2639,2641,2634,2642,2640,2641,2642,2638,2640,2642,2645,2643,2640,2635,2651,2640,2642,2644,2645,2632,2639,2630,2641,2640,2649,2627,2640,2635,2642,2642,2647,2638,2635,2646,2642,2651,2640,2649,2640,2640,2637,2646,2640,2630,2638,2641,2645,2642,2645,2640,2640,2640,2645,2645,2645,2654,2643,2647,2645,2642,2649,2645,2640,2644,2646,2640,2647,2637,2637,2643,2643,2640,2647,2640,2640,2643,2640,2653,2640,2641,2645,2643,2641,2653,2641,2630,2631,2639,2641,2639,2642,2638,2633,2645,2643,2640,2649,close
2651,2642,2645,2643,2651,2640,2640,2642,2639,2642,2643,2640,2637,2635,2657,2640,2647,2642,2635,2643,2639,2646,2641,2642,2635,2635,2643,2642,2647,2642,2646,2642,2643,2639,2652,2645,2645,2650,2640,2645,2646,2639,2625,2630,2641,2644,2650,2643,2640,2640,2647,2649,2649,2636,2642,2636,2640,2629,2647,2640,2641,2644,2654,2639,2653,2638,2640,2639,2653,2640,2657,2641,2647,2623,2654,2640,2645,2643,2630,2641,2631,2651,2646,2639,2638,2629,2642,2633,2650,2639,2643,2633,2639,2650,2641,2650,2639,2639,2640,2638,2649,2641,2640,2637,2641,2640,2640,2649,2645,2640,2641,2641,2640,2642,2653,2629,2639,2643,2640,2647,2649,2629,2641,2633,2649,2640,2640,2640,2642,2645,2646,2641,2640,2634,2635,2639,2638,2654,2653,2630,2630,2642,2640,2649,2627,2642,2641,2642,2645,2635,2640,2641,2638,2640,2640,2646,2618,2640,2640,2651,2639,2644,2642,2640,2640,2644,2639,2645,2640,2641,2635,2645,2642,2635,2621,2652,2633,2640,2643,2640,2626,2644,2635,2643,2639,2649,2629,2640,2640,2645,2644,2639,2629,2629,2635,2641,2649,2642,2645,2631,2625,2645,2647,2641,2640,2640,2631,2643,2640,2649,2640,2626,2644,2640,2626,2640,2643,2641,2643,2643,2636,2650,2647,2633,2634,2645,2639,2647,2631,2647,2645,2651,2646,2639,2624,2640,2645,2647,2642,2637,2624,2640,2633,2647,2644,2647,2643,2649,2647,2628,2646,2637,2634,2643,2640,2635,2646,2640,2625,2651,2637,2645,2643,2639,2625,2650,2635,2646,2640,2635,2642,2633,2650,2640,2653,2643,2627,2647,2640,2647,2645,2647,2627,2633,2634,2650,2636,2645,2647,2639,2638,2643,2641,2650,2643,2636,2651,2640,2641,2655,close
2640,2625,2640,2639,2645,2634,2646,2623,2641,2640,2644,2640,2625,2634,2640,2643,2646,2631,2639,2630,2640,2640,2646,2640,2633,2625,2641,2649,2640,2640,2641,2626,2637,2640,2637,2646,2633,2646,2641,2633,2640,2640,2631,2640,2640,2645,2640,2646,2640,2646,2645,2640,2643,2640,2638,2641,2629,2646,2640,2639,2640,2646,2629,2642,2640,2641,2643,2640,2637,2643,2646,2639,2641,2625,2641,2640,2646,2643,2624,2642,2649,2635,2646,2640,2639,2631,2640,2645,2643,2640,2626,2633,2642,2639,2640,2647,2642,2624,2639,2640,2641,2642,2640,2640,2637,2642,2638,2651,2629,2644,2641,2630,2643,2640,2640,2649,2628,2647,2636,2650,2635,2639,2640,2641,2640,2638,2636,2650,2629,2640,2647,2640,2654,2625,2646,2640,2647,2640,2636,2642,2644,2646,2645,2638,2641,2614,2653,2636,2643,2643,2626,2637,2640,2647,2645,2635,2635,2623,2645,2638,2642,2645,2640,2622,2638,2640,2643,2645,2647,2634,2649,2635,2650,2639,2640,2625,2648,2650,2640,2643,2629,2626,2643,2647,2641,2635,2643,2640,2647,2639,2635,2647,2638,2647,2640,2634,2647,2633,2640,2645,2640,2647,2645,2641,2642,2643,2640,2644,2643,2650,2640,2624,2639,2637,2647,2639,2643,2628,2643,2641,2637,2647,2627,2633,2643,2645,2641,2638,2631,2640,2639,2635,2650,2639,2622,2636,2640,2647,2645,2640,2634,2631,2643,2643,2635,2651,2624,2641,2645,2640,2637,2643,2645,2633,2640,2640,2634,2640,2624,2640,2637,2642,2641,2644,2621,2641,2638,2643,2645,2638,2645,2640,2633,2639,2643,2630,2626,2651,2635,2630,2650,2637,2640,2640,2645,2650,2644,2636,2640,2638,2642,2640,2645,2640,2639,2637,2640,2639,2643,2640,close
2635,2625,2644,2640,2652,2640,2627,2641,2634,2647,2642,2640,2639,2627,2640,2638,2647,2640,2643,2647,2635,2639,2645,2635,2653,2642,2635,2646,2635,2644,2647,2624,2641,2639,2645,2639,2635,2653,2630,2645,2642,2649,2635,2634,2640,2635,2651,2635,2646,2635,2642,2642,2640,2650,2643,2640,2642,2640,2640,2640,2642,2637,2639,2637,2647,2630,2646,2645,2636,2645,2642,2645,2629,2637,2631,2650,2645,2640,2634,2655,2637,2645,2652,2639,2657,2628,2641,2640,2642,2642,2640,2634,2640,2633,2644,2640,2631,2641,2623,2645,2640,2651,2640,2641,2645,2640,2643,2647,2626,2625,2644,2640,2645,2640,2623,2635,2638,2641,2640,2639,2627,2637,2638,2649,2639,2644,2640,2653,2643,2637,2643,2640,2633,2634,2647,2642,2634,2645,2642,2633,2639,2642,2653,2641,2646,2651,2640,2640,2642,2639,2636,2629,2643,2635,2651,2640,2654,2640,2638,2640,2637,2645,2650,2640,2647,2639,2647,2634,2644,2642,2636,2645,2640,2644,2635,2628,2641,2640,2647,2635,2644,2644,2641,2643,2636,2639,2639,2641,2647,2644,2640,2633,2649,2639,2630,2643,2641,2638,2643,2624,2646,2639,2647,2641,2629,2642,2638,2638,2650,2645,2644,2642,2647,2640,2646,2636,2645,2634,2650,2627,2642,2639,2629,2638,2645,2634,2645,2638,2637,2647,2640,2646,2648,2629,2640,2638,2631,2641,2643,2636,2624,2633,2642,2638,2650,2644,2643,2640,2640,2640,2644,2643,2631,2646,2639,2634,2641,2635,2637,2640,2640,2640,2647,2640,2625,2640,2641,2646,2640,2640,2646,2640,2641,2639,2650,2638,2643,2639,2627,2645,2640,2640,2642,2636,2643,2640,2654,2636,2634,2639,2646,2640,2653,2640,2641,2652,2638,2645,2642,2633,close
2629,2646,2645,2640,2651,2646,2634,2627,2640,2631,2643,2643,2631,2640,2635,2641,2635,2643,2645,2625,2639,2650,2638,2646,2631,2628,2638,2647,2640,2647,2647,2630,2642,2642,2638,2647,2636,2639,2639,2645,2640,2645,2635,2641,2636,2631,2644,2642,2640,2640,2639,2642,2643,2638,2637,2628,2643,2642,2640,2643,2625,2638,2637,2644,2641,2647,2635,2630,2631,2628,2644,2637,2648,2631,2631,2642,2637,2639,2629,2633,2649,2642,2640,2646,2634,2635,2639,2639,2645,2636,2633,2638,2643,2642,2643,2643,2642,2640,2641,2644,2640,2645,2637,2635,2645,2642,2639,2642,2636,2634,2644,2635,2647,2643,2640,2628,2641,2651,2640,2642,2637,2629,2631,2639,2640,2647,2635,2635,2640,2638,2645,2640,2621,2642,2638,2634,2645,2647,2630,2635,2640,2640,2650,2640,2637,2645,2640,2640,2650,2640,2644,2634,2643,2649,2643,2640,2647,2638,2650,2649,2641,2640,2650,2627,2641,2640,2650,2642,2647,2630,2640,2641,2640,2649,2627,2626,2642,2647,2642,2646,2637,2640,2654,2634,2646,2640,2627,2641,2640,2642,2649,2635,2640,2638,2655,2635,2650,2640,2659,2640,2647,2653,2636,2645,2635,2639,2640,2642,2651,2637,2646,2637,2649,2633,2640,2649,2640,2637,2642,2637,2647,2638,2643,2635,2641,2644,2639,2640,2622,2646,2635,2635,2643,2643,2639,2640,2638,2640,2647,2634,2640,2644,2635,2639,2643,2637,2639,2625,2640,2641,2643,2643,2635,2631,2640,2643,2643,2642,2635,2630,2640,2645,2640,2643,2637,2655,2640,2645,2640,2639,2630,2639,2646,2643,2639,2641,2638,2651,2634,2640,2642,2634,2637,2638,2640,2640,2637,2643,2625,2633,2650,2639,2650,2633,2630,2640,2631,2641,2634,2643,close
2631,2624,2642,2644,2640,2641,2640,2648,2640,2638,2640,2644,2643,2621,2637,2640,2639,2646,2647,2640,2641,2640,2638,2642,2634,2641,2640,2637,2649,2646,2630,2640,2630,2639,2649,2636,2640,2635,2637,2640,2651,2646,2640,2640,2646,2645,2640,2644,2651,2651,2639,2641,2640,2644,2639,2624,2631,2640,2640,2642,2621,2641,2637,2637,2646,2634,2630,2645,2638,2641,2645,2639,2642,2655,2646,2637,2643,2636,2629,2647,2640,2643,2642,2646,2624,2645,2651,2641,2643,2640,2641,2631,2640,2643,2638,2639,2651,2640,2630,2641,2647,2639,2651,2619,2631,2640,2643,2643,2655,2642,2647,2641,2651,2638,2624,2639,2640,2635,2640,2642,2643,2636,2634,2638,2643,2632,2649,2640,2630,2640,2645,2635,2626,2630,2640,2647,2649,2640,2631,2625,2642,2647,2640,2642,2642,2640,2642,2647,2638,2639,2631,2640,2636,2640,2640,2640,2641,2640,2640,2640,2650,2641,2629,2638,2648,2643,2641,2642,2653,2623,2651,2642,2641,2641,2647,2640,2643,2640,2651,2637,2642,2630,2635,2640,2644,2634,2640,2633,2655,2635,2649,2643,2639,2634,2647,2644,2641,2641,2640,2619,2641,2640,2640,2642,2640,2637,2631,2643,2644,2640,2627,2638,2634,2646,2634,2641,2640,2640,2639,2640,2638,2643,2634,2643,2629,2641,2649,2635,2625,2641,2641,2639,2642,2646,2634,2622,2640,2640,2647,2648,2649,2625,2641,2641,2651,2641,2653,2637,2642,2643,2637,2641,2642,2635,2640,2643,2638,2637,2631,2654,2638,2640,2651,2640,2627,2627,2640,2633,2640,2639,2639,2639,2638,2641,2641,2639,2652,2624,2651,2646,2640,2645,2642,2635,2641,2642,2651,2638,2626,2647,2627,2639,2646,2640,2635,2639,2639,2640,2647,2642,close
2643,2641,2649,2639,2651,2635,2639,2625,2647,2635,2640,2641,2629,2640,2641,2633,2647,2636,2639,2641,2640,2640,2638,2640,2638,2642,2634,2635,2641,2647,2644,2635,2643,2645,2640,2640,2629,2646,2646,2640,2647,2641,2633,2637,2640,2640,2640,2643,2640,2639,2640,2636,2640,2643,2629,2640,2641,2638,2640,2646,2640,2635,2640,2647,2635,2645,2624,2638,2653,2637,2643,2634,2646,2639,2636,2641,2642,2640,2635,2629,2656,2627,2638,2642,2634,2645,2643,2631,2643,2642,2640,2627,2633,2643,2643,2640,2625,2642,2650,2639,2640,2629,2640,2640,2650,2641,2650,2642,2647,2635,2640,2640,2636,2641,2653,2645,2647,2635,2642,2643,2640,2638,2635,2641,2641,2641,2640,2650,2637,2641,2640,2640,2630,2641,2650,2640,2647,2630,2651,2640,2640,2647,2639,2642,2623,2625,2641,2638,2647,2639,2658,2639,2642,2647,2646,2640,2638,2634,2637,2642,2639,2647,2646,2639,2635,2643,2639,2647,2629,2635,2631,2645,2639,2642,2635,2627,2653,2640,2640,2647,2638,2644,2640,2639,2641,2634,2644,2625,2645,2642,2640,2646,2635,2637,2647,2643,2643,2640,2640,2635,2635,2651,2640,2642,2646,2640,2640,2647,2647,2632,2639,2641,2651,2631,2640,2646,2626,2637,2644,2639,2641,2647,2624,2634,2647,2643,2639,2639,2654,2631,2650,2638,2643,2641,2645,2652,2646,2643,2639,2641,2641,2630,2626,2640,2649,2639,2647,2642,2643,2633,2643,2633,2649,2639,2639,2643,2644,2640,2640,2629,2641,2650,2640,2644,2643,2635,2640,2631,2641,2641,2639,2633,2647,2635,2643,2647,2655,2640,2645,2637,2650,2637,2629,2630,2640,2645,2640,2640,2619,2651,2639,2640,2641,2635,2641,2642,2627,2640,2640,2643,close
2640,2634,2640,2645,2644,2639,2653,2635,2638,2631,2638,2650,2655,2631,2631,2641,2640,2640,2630,2641,2637,2643,2638,2639,2639,2652,2646,2640,2651,2639,2639,2640,2639,2645,2651,2640,2640,2627,2645,2639,2643,2646,2629,2627,2631,2643,2641,2637,2624,2625,2635,2639,2647,2636,2639,2641,2651,2644,2642,2651,2638,2624,2644,2639,2649,2640,2626,2645,2631,2649,2649,2639,2657,2627,2650,2646,2637,2643,2629,2640,2634,2640,2643,2643,2640,2623,2633,2640,2640,2643,2641,2647,2641,2645,2639,2645,2631,2644,2640,2646,2638,2643,2635,2640,2640,2641,2649,2635,2633,2635,2653,2637,2647,2630,2625,2624,2637,2645,2640,2641,2655,2640,2644,2643,2645,2641,2627,2641,2647,2639,2643,2647,2634,2630,2640,2643,2643,2640,2653,2626,2627,2645,2651,2637,2640,2638,2640,2629,2642,2640,2635,2641,2626,2641,2642,2639,2640,2624,2640,2646,2637,2640,2637,2655,2640,2646,2640,2641,2625,2643,2646,2638,2645,2643,2629,2644,2653,2637,2641,2651,2640,2624,2637,2643,2637,2638,2633,2650,2646,2639,2642,2643,2647,2643,2652,2635,2643,2640,2640,2641,2645,2645,2638,2640,2640,2640,2640,2641,2645,2640,2644,2645,2634,2642,2647,2640,2657,2640,2638,2649,2641,2640,2644,2647,2631,2641,2651,2628,2631,2638,2642,2633,2649,2645,2644,2640,2642,2640,2645,2639,2640,2627,2634,2640,2649,2640,2640,2635,2640,2645,2640,2646,2651,2627,2631,2640,2651,2638,2653,2641,2640,2646,2645,2640,2649,2637,2649,2637,2644,2643,2622,2647,2647,2637,2647,2638,2640,2624,2639,2641,2637,2644,2640,2641,2646,2640,2649,2643,2639,2641,2636,2640,2648,2640,2638,2634,2640,2639,2646,2650,close
2640,2625,2640,2635,2650,2640,2627,2627,2647,2638,2653,2640,2640,2635,2640,2649,2640,2647,2638,2636,2642,2642,2643,2649,2653,2633,2641,2640,2642,2651,2630,2645,2635,2647,2627,2640,2625,2630,2640,2629,2641,2641,2639,2628,2640,2627,2641,2639,2640,2637,2634,2642,2639,2647,2640,2631,2651,2637,2643,2637,2651,2625,2642,2637,2645,2640,2627,2641,2640,2645,2641,2642,2635,2647,2638,2643,2642,2640,2645,2625,2640,2646,2638,2643,2636,2640,2640,2641,2645,2645,2626,2635,2642,2646,2641,2646,2653,2624,2643,2643,2643,2642,2650,2635,2647,2637,2653,2640,2631,2649,2640,2649,2642,2642,2641,2624,2643,2642,2643,2642,2639,2624,2639,2638,2649,2639,2639,2644,2645,2646,2641,2640,2641,2638,2635,2640,2648,2639,2641,2629,2640,2643,2640,2647,2636,2655,2636,2640,2640,2651,2642,2639,2647,2640,2638,2641,2630,2630,2640,2640,2649,2631,2644,2635,2647,2634,2646,2630,2645,2630,2639,2631,2651,2640,2635,2634,2645,2638,2647,2639,2640,2642,2629,2645,2638,2645,2630,2649,2634,2642,2639,2646,2630,2626,2635,2645,2640,2641,2644,2637,2643,2650,2642,2641,2640,2634,2639,2640,2647,2640,2640,2638,2623,2642,2640,2643,2640,2646,2639,2639,2640,2641,2647,2642,2643,2640,2640,2645,2640,2640,2640,2640,2644,2640,2625,2641,2637,2652,2637,2645,2625,2637,2623,2640,2641,2645,2640,2627,2656,2640,2637,2650,2647,2627,2643,2641,2648,2634,2645,2634,2650,2639,2645,2633,2644,2624,2640,2638,2652,2633,2639,2624,2647,2644,2645,2638,2633,2630,2640,2643,2640,2636,2639,2629,2633,2635,2641,2645,2623,2638,2646,2632,2646,2629,2647,2643,2640,2642,2637,2642,close
2629,2634,2645,2642,2641,2645,2639,2636,2637,2639,2631,2642,2646,2640,2640,2640,2650,2640,2631,2628,2642,2635,2647,2640,2634,2624,2640,2640,2635,2640,2640,2645,2638,2642,2642,2647,2647,2635,2631,2641,2652,2639,2639,2629,2630,2636,2647,2640,2640,2624,2650,2640,2642,2640,2644,2625,2643,2643,2635,2642,2640,2644,2638,2644,2638,2643,2633,2637,2642,2643,2640,2641,2640,2633,2646,2640,2643,2629,2635,2656,2640,2640,2637,2631,2639,2641,2642,2642,2635,2642,2640,2640,2637,2640,2647,2640,2630,2642,2639,2639,2650,2638,2640,2635,2640,2637,2646,2637,2632,2637,2642,2639,2640,2640,2627,2640,2640,2646,2640,2640,2644,2618,2641,2636,2647,2635,2635,2643,2646,2640,2639,2629,2647,2631,2647,2640,2645,2641,2640,2638,2635,2644,2639,2634,2636,2623,2639,2644,2642,2636,2640,2639,2647,2642,2640,2637,2640,2640,2631,2643,2644,2654,2625,2654,2640,2641,2640,2645,2633,2640,2640,2645,2637,2646,2637,2629,2640,2641,2642,2634,2615,2635,2647,2639,2648,2645,2647,2627,2643,2636,2633,2643,2644,2627,2651,2634,2651,2638,2640,2626,2644,2641,2643,2636,2624,2631,2640,2647,2646,2639,2641,2636,2655,2641,2640,2642,2635,2647,2630,2640,2639,2646,2640,2629,2625,2647,2643,2639,2645,2640,2636,2647,2649,2638,2638,2634,2640,2631,2650,2647,2620,2643,2651,2635,2645,2646,2635,2622,2657,2639,2633,2649,2640,2640,2646,2640,2640,2641,2650,2640,2625,2640,2647,2643,2640,2640,2640,2629,2647,2640,2640,2640,2653,2637,2649,2640,2640,2635,2645,2645,2653,2640,2638,2642,2650,2644,2642,2637,2647,2640,2632,2629,2650,2643,2619,2640,2642,2640,2642,2639,close
2640,2625,2647,2635,2640,2641,2622,2636,2659,2640,2638,2641,2639,2649,2640,2643,2641,2645,2638,2640,2642,2628,2649,2641,2651,2630,2645,2643,2644,2640,2650,2625,2650,2640,2641,2637,2640,2637,2640,2643,2649,2640,2653,2630,2631,2643,2641,2640,2651,2649,2639,2635,2643,2644,2637,2633,2637,2631,2644,2641,2630,2640,2643,2640,2640,2634,2634,2640,2624,2639,2645,2643,2622,2637,2638,2642,2643,2641,2627,2643,2640,2639,2653,2638,2640,2640,2645,2640,2647,2638,2639,2625,2635,2642,2643,2643,2651,2640,2639,2643,2640,2640,2626,2638,2642,2645,2634,2643,2640,2640,2646,2640,2641,2640,2637,2647,2640,2644,2638,2645,2634,2641,2636,2640,2640,2643,2640,2652,2640,2640,2644,2644,2646,2646,2638,2640,2645,2640,2638,2645,2640,2640,2640,2635,2627,2624,2642,2639,2647,2637,2628,2645,2640,2638,2650,2640,2637,2639,2640,2649,2635,2643,2634,2625,2644,2630,2651,2634,2653,2624,2640,2634,2643,2637,2645,2635,2640,2640,2647,2640,2640,2640,2657,2633,2642,2631,2637,2646,2635,2641,2643,2645,2620,2633,2645,2641,2634,2646,2639,2637,2647,2640,2649,2640,2642,2642,2645,2643,2641,2641,2634,2635,2628,2641,2635,2645,2639,2638,2640,2643,2646,2637,2640,2631,2645,2640,2643,2646,2634,2629,2643,2639,2650,2641,2629,2640,2631,2645,2630,2640,2642,2625,2639,2636,2645,2633,2638,2638,2631,2645,2637,2642,2631,2650,2636,2641,2641,2642,2640,2643,2640,2643,2643,2646,2629,2624,2644,2637,2641,2640,2631,2631,2640,2636,2647,2639,2640,2629,2637,2640,2650,2640,2630,2635,2640,2634,2645,2645,2624,2636,2637,2641,2643,2645,2625,2637,2641,2639,2646,2645,close
2640,2620,2646,2640,2648,2650,2633,2628,2638,2645,2642,2650,2655,2640,2639,2641,2641,2641,2637,2635,2643,2639,2647,2639,2625,2629,2640,2635,2641,2640,2639,2637,2637,2633,2647,2639,2651,2639,2647,2640,2643,2641,2642,2638,2647,2640,2646,2638,2640,2640,2639,2639,2647,2634,2645,2634,2640,2635,2641,2646,2638,2630,2634,2643,2639,2645,2637,2624,2646,2640,2646,2640,2659,2623,2646,2637,2643,2635,2624,2632,2629,2644,2634,2646,2643,2640,2639,2645,2636,2641,2640,2645,2646,2638,2647,2640,2640,2624,2637,2641,2639,2633,2643,2633,2650,2640,2651,2636,2641,2635,2644,2635,2641,2640,2634,2637,2634,2645,2635,2641,2639,2646,2638,2647,2640,2642,2633,2637,2647,2638,2649,2638,2629,2644,2645,2640,2636,2640,2644,2640,2640,2635,2640,2639,2631,2644,2642,2630,2643,2647,2651,2640,2647,2637,2644,2637,2640,2631,2640,2635,2650,2638,2623,2640,2633,2640,2640,2645,2641,2640,2641,2642,2644,2644,2646,2639,2653,2640,2642,2640,2645,2639,2637,2640,2647,2640,2647,2643,2643,2635,2645,2640,2639,2640,2649,2639,2643,2638,2640,2630,2639,2640,2646,2639,2633,2624,2647,2640,2646,2645,2643,2636,2640,2647,2640,2646,2642,2640,2635,2635,2651,2630,2626,2639,2656,2637,2647,2635,2634,2618,2640,2638,2647,2640,2654,2634,2655,2639,2646,2642,2646,2623,2642,2635,2649,2631,2630,2647,2635,2643,2640,2650,2643,2639,2630,2641,2642,2645,2638,2626,2635,2652,2646,2649,2625,2650,2638,2641,2643,2640,2629,2631,2640,2641,2641,2638,2630,2645,2638,2640,2647,2645,2642,2624,2639,2639,2646,2640,2645,2640,2640,2632,2642,2637,2640,2634,2640,2643,2638,2642,close
2653,2626,2647,2640,2641,2638,2628,2651,2631,2640,2637,2643,2631,2641,2625,2644,2653,2640,2626,2646,2649,2634,2646,2639,2640,2643,2631,2640,2638,2642,2630,2629,2646,2640,2646,2637,2640,2638,2639,2640,2651,2639,2642,2638,2641,2640,2649,2640,2640,2644,2643,2642,2640,2643,2640,2631,2640,2640,2643,2640,2621,2640,2637,2640,2637,2640,2629,2640,2646,2636,2640,2640,2656,2641,2638,2635,2646,2635,2639,2624,2641,2645,2639,2645,2632,2642,2637,2643,2638,2641,2641,2618,2641,2646,2643,2634,2627,2641,2635,2650,2640,2642,2640,2641,2639,2649,2639,2643,2640,2640,2641,2639,2644,2641,2629,2633,2650,2642,2643,2637,2656,2635,2641,2640,2645,2638,2629,2647,2640,2643,2639,2645,2634,2634,2634,2641,2637,2645,2625,2634,2653,2637,2643,2640,2645,2639,2646,2633,2642,2637,2634,2641,2642,2640,2640,2639,2629,2634,2627,2640,2640,2646,2640,2640,2631,2645,2633,2643,2634,2624,2655,2630,2647,2634,2630,2649,2633,2645,2639,2642,2625,2635,2635,2640,2654,2640,2631,2625,2647,2645,2644,2630,2642,2627,2639,2638,2646,2637,2639,2635,2640,2633,2647,2629,2643,2639,2640,2645,2635,2638,2640,2640,2638,2646,2640,2640,2631,2647,2640,2645,2640,2643,2639,2653,2640,2640,2635,2643,2640,2634,2641,2641,2636,2638,2641,2629,2634,2645,2640,2644,2623,2641,2627,2640,2647,2640,2651,2627,2641,2647,2640,2642,2635,2646,2643,2640,2637,2646,2650,2627,2640,2635,2651,2629,2642,2645,2641,2650,2639,2645,2658,2640,2647,2636,2645,2637,2638,2640,2625,2647,2635,2646,2639,2639,2642,2642,2639,2641,2628,2640,2645,2638,2654,2635,2624,2638,2635,2641,2646,2640,close
2651,2624,2639,2640,2651,2640,2640,2629,2641,2645,2645,2643,2624,2643,2640,2647,2644,2642,2638,2640,2642,2640,2641,2640,2640,2647,2640,2645,2640,2641,2645,2645,2638,2645,2641,2640,2626,2642,2642,2641,2640,2641,2649,2640,2652,2642,2640,2648,2658,2626,2646,2642,2641,2643,2655,2642,2653,2641,2646,2640,2629,2645,2641,2642,2650,2640,2630,2630,2641,2639,2650,2640,2631,2624,2646,2641,2645,2649,2647,2636,2645,2643,2642,2639,2632,2650,2639,2646,2641,2647,2639,2635,2640,2640,2649,2637,2639,2641,2640,2639,2645,2641,2646,2640,2647,2640,2643,2640,2646,2640,2642,2645,2640,2645,2637,2649,2646,2642,2641,2640,2653,2633,2640,2649,2642,2647,2653,2640,2635,2649,2644,2640,2649,2640,2644,2642,2644,2642,2640,2635,2640,2640,2647,2640,2641,2634,2640,2645,2644,2640,2639,2624,2641,2643,2642,2649,2628,2651,2642,2641,2640,2642,2642,2635,2639,2646,2641,2647,2626,2646,2655,2640,2651,2640,2643,2649,2644,2645,2640,2652,2643,2639,2656,2640,2647,2639,2650,2637,2645,2641,2642,2642,2647,2637,2653,2637,2650,2640,2624,2651,2646,2642,2647,2638,2633,2643,2653,2639,2647,2641,2651,2638,2640,2642,2640,2642,2646,2627,2647,2644,2640,2647,2630,2641,2659,2640,2646,2641,2651,2643,2650,2644,2643,2643,2639,2655,2639,2642,2647,2640,2650,2637,2651,2639,2645,2643,2641,2650,2643,2640,2653,2639,2634,2638,2641,2640,2652,2640,2640,2629,2640,2645,2645,2645,2637,2626,2654,2645,2641,2645,2645,2647,2641,2640,2645,2640,2637,2645,2641,2640,2654,2634,2640,2641,2647,2638,2640,2647,2640,2638,2641,2639,2646,2645,2638,2639,2645,2646,2642,2643,close
2627,2640,2646,2639,2651,2640,2646,2642,2640,2645,2641,2643,2645,2631,2638,2641,2653,2639,2625,2643,2634,2643,2644,2644,2638,2643,2643,2639,2642,2643,2643,2631,2639,2639,2645,2640,2646,2628,2643,2642,2640,2645,2628,2628,2644,2640,2646,2640,2639,2640,2642,2640,2643,2646,2642,2634,2640,2640,2645,2642,2629,2625,2649,2642,2646,2640,2643,2640,2640,2640,2650,2640,2640,2624,2639,2640,2642,2639,2638,2634,2649,2640,2649,2638,2627,2642,2640,2642,2645,2645,2653,2630,2640,2640,2650,2640,2634,2640,2636,2642,2645,2643,2647,2633,2643,2642,2640,2642,2642,2652,2649,2638,2650,2640,2634,2637,2640,2640,2640,2641,2645,2630,2643,2640,2646,2640,2639,2624,2651,2636,2651,2642,2649,2640,2646,2640,2640,2643,2655,2629,2653,2640,2647,2646,2640,2640,2645,2643,2646,2640,2623,2635,2640,2649,2642,2650,2640,2641,2641,2644,2641,2650,2650,2627,2645,2649,2640,2643,2630,2647,2653,2639,2647,2637,2639,2629,2637,2647,2642,2641,2640,2631,2645,2643,2640,2647,2627,2636,2640,2647,2643,2640,2653,2652,2638,2649,2640,2641,2657,2640,2649,2641,2640,2647,2635,2640,2649,2640,2643,2639,2642,2649,2655,2642,2647,2642,2640,2631,2650,2643,2643,2645,2638,2637,2637,2643,2640,2641,2634,2641,2640,2639,2643,2640,2641,2636,2653,2640,2646,2643,2627,2642,2647,2648,2645,2643,2642,2647,2644,2640,2647,2640,2640,2639,2649,2642,2650,2645,2649,2640,2651,2645,2640,2645,2640,2642,2640,2640,2640,2642,2645,2630,2643,2642,2643,2645,2641,2638,2650,2640,2634,2641,2638,2625,2637,2642,2640,2647,2635,2637,2642,2641,2651,2646,2651,2631,2653,2641,2647,2643,close
2627,2634,2640,2642,2646,2642,2630,2641,2642,2637,2643,2640,2641,2651,2641,2645,2643,2647,2645,2645,2638,2638,2646,2640,2643,2640,2641,2642,2645,2647,2644,2628,2640,2650,2643,2644,2643,2631,2637,2641,2647,2642,2647,2627,2640,2646,2646,2643,2630,2640,2640,2642,2643,2646,2649,2635,2649,2639,2653,2641,2645,2640,2646,2641,2640,2643,2644,2628,2640,2642,2640,2643,2649,2627,2639,2640,2643,2647,2651,2640,2639,2646,2643,2645,2640,2640,2639,2639,2640,2646,2650,2655,2633,2647,2642,2650,2641,2654,2640,2647,2642,2646,2650,2639,2635,2647,2638,2643,2631,2622,2641,2640,2645,2641,2635,2638,2640,2651,2640,2647,2637,2629,2645,2637,2645,2642,2647,2633,2643,2645,2642,2647,2653,2640,2640,2645,2640,2646,2640,2646,2641,2645,2640,2643,2629,2647,2637,2641,2645,2641,2645,2637,2647,2644,2640,2639,2645,2645,2647,2651,2645,2641,2630,2631,2638,2647,2641,2642,2624,2627,2640,2646,2647,2645,2640,2627,2650,2642,2643,2640,2640,2629,2639,2642,2650,2649,2655,2636,2638,2641,2649,2643,2624,2641,2639,2640,2642,2641,2633,2640,2635,2645,2640,2650,2638,2630,2645,2640,2641,2640,2638,2643,2643,2640,2645,2640,2623,2639,2634,2640,2646,2644,2640,2629,2640,2649,2643,2640,2629,2647,2640,2643,2641,2649,2631,2624,2645,2642,2640,2643,2640,2630,2651,2640,2645,2640,2635,2637,2640,2640,2642,2640,2634,2630,2641,2639,2643,2643,2651,2646,2640,2645,2640,2640,2651,2640,2640,2638,2640,2643,2640,2634,2643,2645,2640,2634,2640,2641,2640,2640,2642,2646,2657,2627,2650,2641,2643,2645,2627,2642,2643,2636,2653,2642,2643,2640,2641,2646,2647,2642,close
2629,2640,2633,2643,2640,2642,2627,2640,2639,2639,2645,2645,2635,2630,2633,2639,2641,2641,2627,2640,2653,2640,2642,2647,2638,2640,2640,2640,2640,2640,2643,2640,2640,2641,2642,2640,2647,2637,2639,2645,2640,2647,2633,2653,2645,2643,2645,2639,2629,2641,2641,2641,2652,2640,2636,2630,2655,2641,2642,2644,2645,2638,2652,2641,2651,2644,2647,2631,2640,2643,2646,2638,2635,2632,2631,2640,2641,2643,2629,2640,2647,2641,2643,2641,2653,2637,2639,2640,2647,2640,2625,2640,2646,2646,2645,2640,2651,2645,2651,2641,2650,2643,2634,2630,2641,2641,2653,2642,2627,2640,2640,2641,2650,2642,2645,2640,2639,2641,2637,2645,2634,2639,2647,2641,2641,2640,2640,2640,2630,2643,2642,2644,2634,2634,2646,2640,2647,2642,2653,2637,2653,2641,2641,2643,2634,2643,2637,2640,2652,2640,2639,2654,2639,2641,2646,2640,2651,2647,2638,2647,2644,2647,2647,2644,2649,2645,2643,2651,2655,2643,2643,2638,2647,2635,2643,2639,2643,2643,2644,2638,2640,2640,2651,2640,2648,2640,2625,2640,2645,2639,2646,2649,2627,2640,2640,2643,2640,2645,2641,2640,2638,2641,2642,2640,2659,2640,2640,2640,2640,2644,2640,2646,2645,2638,2652,2640,2629,2640,2646,2640,2641,2639,2637,2640,2647,2641,2656,2638,2638,2638,2641,2640,2649,2638,2641,2633,2639,2644,2646,2640,2631,2647,2644,2640,2650,2640,2644,2629,2634,2642,2647,2640,2640,2642,2646,2640,2640,2641,2634,2640,2645,2640,2650,2640,2647,2625,2640,2640,2651,2641,2631,2637,2643,2643,2640,2643,2633,2629,2640,2639,2652,2640,2639,2651,2646,2643,2641,2641,2641,2640,2638,2647,2646,2642,2633,2630,2638,2651,2640,2642,close
2653,2639,2640,2641,2656,2638,2635,2640,2639,2649,2638,2647,2641,2640,2635,2645,2640,2646,2635,2641,2645,2649,2640,2640,2637,2643,2640,2641,2642,2647,2638,2637,2640,2641,2646,2651,2639,2631,2641,2640,2651,2641,2623,2630,2639,2644,2640,2647,2637,2628,2651,2640,2647,2640,2640,2630,2640,2641,2640,2646,2651,2629,2645,2640,2645,2640,2651,2640,2646,2640,2642,2638,2631,2649,2633,2643,2641,2637,2640,2636,2638,2637,2645,2639,2650,2647,2640,2640,2650,2642,2634,2642,2641,2631,2647,2640,2645,2624,2636,2646,2640,2646,2645,2640,2640,2646,2646,2638,2638,2640,2646,2642,2647,2640,2649,2633,2647,2643,2639,2642,2640,2634,2650,2638,2642,2639,2639,2629,2644,2640,2646,2641,2645,2627,2643,2646,2639,2649,2638,2640,2644,2647,2642,2644,2641,2640,2647,2642,2643,2641,2635,2631,2641,2641,2640,2642,2641,2627,2640,2642,2640,2640,2640,2649,2643,2640,2645,2642,2640,2623,2638,2640,2645,2638,2638,2630,2645,2640,2640,2646,2642,2640,2646,2640,2641,2641,2629,2635,2651,2644,2652,2640,2640,2626,2644,2639,2649,2635,2652,2629,2644,2641,2645,2640,2639,2640,2643,2646,2643,2643,2654,2624,2640,2637,2651,2642,2659,2640,2651,2640,2643,2640,2640,2640,2641,2640,2643,2641,2642,2626,2655,2639,2651,2645,2635,2643,2641,2646,2647,2642,2639,2627,2649,2643,2654,2640,2647,2631,2647,2641,2646,2635,2634,2638,2651,2640,2656,2641,2629,2643,2641,2643,2640,2642,2639,2629,2655,2640,2643,2639,2651,2640,2640,2642,2647,2653,2637,2640,2649,2641,2652,2641,2626,2630,2645,2640,2647,2640,2629,2639,2640,2635,2640,2648,2630,2639,2633,2640,2645,2641,close
2650,2630,2640,2637,2645,2639,2639,2645,2631,2640,2645,2642,2626,2633,2631,2640,2640,2643,2638,2629,2640,2639,2641,2640,2640,2624,2654,2634,2645,2641,2645,2625,2645,2642,2645,2642,2646,2640,2638,2642,2640,2643,2635,2638,2641,2640,2641,2642,2654,2641,2652,2639,2643,2640,2644,2652,2643,2646,2640,2641,2634,2630,2639,2643,2640,2653,2635,2633,2630,2640,2650,2640,2645,2622,2640,2637,2652,2629,2635,2646,2639,2645,2640,2647,2640,2646,2651,2640,2650,2640,2647,2634,2640,2643,2642,2640,2640,2640,2647,2638,2641,2640,2643,2634,2640,2641,2640,2643,2624,2640,2639,2642,2638,2643,2646,2638,2651,2636,2654,2635,2647,2640,2640,2642,2640,2647,2652,2624,2645,2635,2644,2640,2640,2630,2641,2640,2635,2644,2632,2642,2631,2645,2640,2640,2634,2637,2641,2642,2642,2641,2626,2641,2649,2645,2640,2640,2624,2640,2645,2643,2640,2643,2631,2632,2643,2639,2645,2640,2639,2643,2640,2640,2644,2647,2643,2639,2643,2641,2639,2646,2643,2639,2653,2641,2645,2637,2640,2637,2639,2645,2640,2642,2630,2646,2625,2643,2650,2640,2639,2626,2639,2639,2647,2638,2624,2642,2638,2646,2639,2645,2621,2646,2637,2642,2640,2642,2653,2641,2642,2647,2640,2644,2641,2631,2625,2640,2640,2641,2631,2650,2639,2640,2638,2643,2643,2624,2642,2635,2643,2637,2641,2646,2643,2646,2640,2640,2640,2641,2641,2642,2642,2644,2639,2623,2630,2643,2638,2645,2639,2643,2651,2637,2649,2640,2651,2633,2640,2641,2647,2625,2649,2640,2640,2639,2650,2635,2624,2643,2642,2643,2651,2637,2636,2639,2645,2639,2647,2639,2634,2646,2639,2640,2640,2640,2650,2634,2647,2651,2645,2627,close
2640,2631,2647,2638,2645,2646,2653,2635,2646,2647,2640,2641,2655,2625,2642,2640,2643,2638,2629,2639,2641,2644,2631,2645,2655,2624,2637,2645,2640,2643,2629,2640,2636,2640,2641,2643,2639,2629,2642,2642,2649,2640,2641,2635,2640,2650,2641,2652,2642,2619,2641,2640,2642,2642,2625,2641,2645,2640,2643,2640,2640,2635,2645,2645,2640,2640,2641,2631,2640,2643,2638,2647,2642,2635,2641,2643,2640,2647,2645,2629,2645,2646,2638,2642,2639,2638,2640,2640,2651,2639,2640,2642,2635,2645,2631,2650,2641,2640,2634,2640,2641,2647,2645,2635,2640,2636,2649,2649,2627,2640,2630,2643,2639,2643,2640,2628,2647,2631,2643,2635,2646,2628,2641,2647,2650,2640,2640,2641,2640,2640,2643,2645,2654,2637,2647,2639,2647,2640,2638,2640,2647,2647,2637,2644,2635,2641,2630,2647,2640,2642,2647,2625,2647,2634,2644,2640,2651,2641,2634,2645,2641,2647,2639,2633,2640,2636,2645,2638,2645,2646,2637,2646,2633,2646,2641,2650,2635,2645,2639,2647,2634,2640,2631,2646,2640,2645,2651,2629,2650,2634,2643,2642,2640,2639,2640,2639,2651,2635,2640,2630,2644,2640,2638,2640,2627,2645,2641,2643,2657,2639,2643,2638,2644,2643,2640,2647,2638,2643,2647,2641,2643,2642,2637,2641,2653,2639,2640,2639,2637,2627,2643,2639,2647,2640,2644,2639,2637,2650,2639,2645,2649,2635,2643,2631,2647,2647,2643,2645,2634,2645,2635,2645,2653,2640,2653,2640,2641,2633,2630,2635,2631,2640,2634,2643,2633,2624,2647,2634,2646,2640,2640,2641,2649,2640,2647,2633,2626,2633,2645,2641,2651,2642,2635,2640,2631,2641,2646,2642,2640,2641,2640,2640,2635,2642,2634,2634,2640,2651,2639,2645,close
2657,2640,2649,2640,2655,2639,2651,2635,2647,2639,2643,2642,2637,2638,2642,2631,2647,2640,2631,2646,2636,2647,2638,2645,2649,2627,2640,2640,2640,2641,2631,2641,2631,2646,2634,2640,2644,2636,2642,2639,2646,2640,2637,2638,2647,2637,2646,2631,2650,2639,2630,2641,2640,2643,2640,2640,2637,2640,2640,2647,2624,2637,2638,2637,2655,2636,2615,2630,2637,2647,2646,2646,2635,2631,2642,2630,2644,2638,2625,2645,2640,2640,2636,2643,2634,2650,2636,2639,2642,2643,2640,2642,2630,2651,2639,2646,2640,2641,2642,2641,2640,2645,2635,2640,2644,2640,2654,2643,2639,2640,2640,2634,2643,2635,2639,2624,2649,2641,2647,2634,2650,2639,2643,2638,2650,2640,2650,2634,2647,2637,2647,2635,2638,2647,2624,2640,2640,2650,2655,2631,2639,2635,2650,2639,2649,2629,2644,2638,2639,2642,2632,2638,2647,2640,2640,2644,2641,2633,2640,2640,2644,2638,2624,2646,2640,2640,2653,2634,2647,2624,2656,2640,2651,2635,2656,2625,2638,2646,2646,2640,2640,2640,2635,2644,2634,2645,2640,2636,2631,2640,2640,2640,2633,2640,2639,2647,2640,2642,2624,2631,2645,2639,2651,2641,2644,2644,2647,2641,2641,2642,2649,2637,2640,2641,2635,2640,2637,2640,2637,2641,2640,2643,2647,2631,2640,2637,2646,2640,2645,2637,2641,2640,2645,2640,2650,2656,2640,2641,2635,2643,2615,2639,2646,2638,2653,2639,2641,2640,2644,2637,2646,2637,2647,2637,2653,2637,2643,2633,2639,2645,2640,2647,2638,2641,2634,2624,2653,2639,2651,2634,2631,2646,2643,2642,2639,2640,2637,2645,2635,2643,2641,2645,2640,2646,2640,2641,2642,2644,2646,2640,2654,2638,2642,2642,2640,2624,2649,2634,2647,2635,close
2638,2627,2645,2638,2656,2640,2651,2627,2647,2646,2642,2643,2622,2640,2640,2641,2652,2642,2640,2644,2631,2640,2640,2640,2649,2637,2631,2646,2640,2645,2642,2633,2646,2645,2642,2641,2635,2649,2639,2646,2640,2643,2640,2645,2639,2641,2637,2644,2624,2630,2634,2647,2640,2645,2643,2640,2640,2646,2640,2646,2645,2628,2640,2640,2645,2647,2631,2635,2640,2640,2640,2641,2629,2650,2639,2640,2641,2643,2643,2629,2646,2640,2643,2636,2634,2631,2646,2638,2649,2640,2630,2655,2652,2639,2646,2637,2633,2646,2632,2647,2633,2641,2640,2640,2655,2637,2640,2638,2640,2631,2644,2640,2642,2638,2650,2637,2637,2645,2640,2643,2635,2635,2640,2640,2650,2636,2629,2640,2637,2640,2639,2649,2637,2627,2633,2643,2634,2646,2647,2637,2641,2640,2640,2641,2627,2634,2635,2645,2639,2640,2633,2640,2642,2640,2646,2638,2654,2633,2641,2647,2640,2645,2647,2651,2640,2642,2643,2643,2645,2635,2640,2640,2643,2641,2641,2629,2637,2639,2653,2645,2630,2635,2629,2647,2638,2643,2630,2614,2631,2646,2641,2638,2638,2647,2641,2635,2643,2640,2640,2633,2646,2640,2644,2639,2642,2646,2640,2643,2643,2631,2634,2627,2641,2638,2641,2640,2657,2624,2631,2642,2652,2642,2627,2650,2641,2641,2637,2643,2640,2641,2649,2639,2641,2640,2654,2646,2636,2643,2651,2651,2646,2640,2634,2643,2640,2645,2635,2641,2640,2640,2639,2643,2640,2649,2640,2642,2640,2643,2642,2619,2631,2643,2640,2637,2637,2624,2648,2640,2646,2645,2640,2643,2640,2640,2640,2631,2617,2656,2639,2640,2639,2647,2640,2633,2641,2635,2646,2646,2637,2635,2641,2642,2645,2638,2640,2650,2645,2650,2646,2646,close
2631,2633,2656,2640,2639,2640,2637,2617,2640,2640,2639,2637,2639,2628,2640,2640,2646,2642,2628,2634,2640,2641,2640,2647,2640,2640,2640,2644,2643,2638,2645,2639,2640,2640,2651,2642,2641,2623,2646,2646,2641,2642,2640,2629,2640,2647,2645,2640,2645,2650,2634,2645,2637,2643,2645,2643,2633,2633,2640,2643,2627,2633,2623,2643,2648,2645,2637,2624,2653,2640,2641,2638,2630,2640,2640,2636,2653,2645,2631,2653,2643,2646,2640,2638,2625,2628,2643,2646,2640,2641,2647,2639,2647,2642,2645,2633,2640,2624,2639,2631,2647,2637,2638,2642,2640,2646,2640,2635,2639,2623,2641,2645,2640,2635,2630,2634,2634,2640,2629,2646,2641,2624,2647,2639,2640,2642,2634,2642,2635,2641,2639,2647,2640,2630,2633,2646,2643,2638,2641,2649,2638,2643,2647,2643,2628,2640,2637,2643,2640,2637,2634,2640,2641,2641,2641,2640,2641,2639,2639,2641,2631,2640,2651,2637,2640,2643,2642,2638,2660,2626,2651,2639,2645,2641,2626,2654,2631,2642,2638,2649,2653,2651,2654,2641,2640,2640,2643,2645,2639,2641,2649,2641,2647,2637,2638,2643,2640,2647,2639,2630,2640,2640,2650,2645,2647,2640,2641,2634,2638,2640,2638,2641,2640,2640,2642,2640,2634,2629,2645,2642,2642,2641,2624,2625,2649,2641,2635,2642,2635,2639,2647,2634,2645,2644,2625,2643,2640,2640,2637,2629,2653,2640,2631,2640,2642,2640,2638,2645,2639,2638,2640,2646,2651,2615,2650,2647,2640,2636,2643,2634,2651,2643,2639,2637,2645,2633,2649,2639,2643,2642,2656,2641,2640,2640,2647,2640,2637,2635,2643,2642,2645,2640,2640,2628,2640,2641,2639,2642,2627,2637,2641,2651,2641,2644,2646,2640,2636,2646,2649,2641,close
2635,2631,2656,2631,2641,2645,2639,2629,2647,2640,2641,2643,2635,2626,2646,2642,2640,2640,2642,2640,2643,2643,2637,2639,2641,2634,2645,2640,2649,2640,2637,2640,2632,2646,2637,2640,2634,2634,2652,2631,2641,2641,2624,2637,2635,2641,2644,2640,2621,2635,2643,2645,2646,2634,2641,2650,2644,2644,2642,2638,2640,2641,2649,2640,2642,2645,2640,2642,2645,2639,2640,2646,2634,2631,2645,2638,2647,2651,2630,2631,2639,2640,2645,2640,2653,2625,2639,2645,2639,2646,2649,2640,2650,2646,2637,2647,2643,2634,2640,2642,2643,2640,2633,2631,2640,2645,2639,2646,2629,2631,2644,2636,2640,2645,2624,2631,2640,2639,2645,2640,2643,2635,2636,2629,2654,2639,2625,2639,2640,2629,2646,2647,2636,2623,2651,2635,2645,2646,2640,2627,2641,2644,2634,2645,2637,2627,2641,2640,2638,2643,2631,2637,2647,2640,2631,2642,2650,2647,2639,2630,2646,2640,2645,2627,2640,2642,2654,2644,2634,2659,2640,2640,2645,2645,2629,2627,2648,2641,2637,2646,2626,2645,2639,2639,2651,2638,2641,2639,2648,2642,2637,2649,2635,2630,2643,2643,2636,2645,2651,2624,2641,2644,2633,2640,2629,2633,2640,2648,2643,2638,2646,2626,2637,2640,2635,2643,2643,2624,2642,2640,2645,2640,2650,2634,2644,2645,2644,2640,2635,2619,2634,2645,2637,2645,2633,2640,2630,2640,2643,2643,2640,2634,2644,2643,2640,2646,2638,2640,2637,2641,2640,2640,2640,2642,2640,2637,2650,2642,2650,2646,2631,2640,2641,2643,2646,2640,2640,2642,2643,2635,2641,2640,2631,2638,2644,2640,2645,2624,2635,2643,2642,2640,2640,2644,2646,2640,2628,2640,2640,2635,2646,2645,2635,2641,2631,2630,2640,2644,2646,2640,close
2641,2631,2646,2640,2631,2651,2638,2631,2640,2641,2640,2634,2639,2656,2642,2640,2644,2634,2641,2630,2651,2630,2642,2642,2657,2640,2635,2631,2646,2639,2621,2643,2641,2631,2650,2642,2623,2634,2643,2638,2646,2639,2640,2647,2638,2640,2637,2640,2650,2634,2635,2633,2649,2640,2619,2625,2643,2635,2640,2640,2635,2633,2651,2640,2634,2640,2629,2631,2629,2640,2647,2639,2645,2645,2635,2650,2633,2640,2631,2640,2636,2634,2635,2641,2633,2636,2638,2645,2638,2645,2640,2637,2631,2642,2649,2634,2635,2640,2641,2637,2643,2642,2655,2640,2646,2637,2645,2646,2640,2631,2640,2642,2646,2639,2635,2637,2641,2646,2640,2645,2647,2640,2646,2640,2645,2643,2640,2635,2649,2635,2647,2634,2640,2634,2653,2634,2642,2637,2642,2638,2641,2647,2640,2643,2631,2640,2639,2650,2633,2641,2634,2631,2640,2645,2640,2646,2639,2627,2641,2631,2642,2637,2619,2637,2640,2637,2639,2647,2645,2639,2638,2647,2650,2636,2625,2650,2645,2632,2643,2640,2624,2651,2650,2640,2646,2636,2640,2647,2643,2640,2655,2639,2641,2654,2631,2645,2650,2640,2638,2634,2636,2643,2639,2641,2635,2640,2640,2640,2647,2639,2630,2638,2640,2631,2640,2642,2645,2655,2633,2641,2651,2636,2645,2640,2642,2637,2647,2627,2631,2640,2642,2639,2651,2640,2641,2640,2631,2640,2650,2635,2635,2624,2640,2643,2638,2640,2640,2614,2640,2641,2639,2640,2637,2629,2645,2640,2647,2635,2640,2624,2641,2640,2638,2645,2626,2635,2641,2637,2645,2645,2645,2637,2641,2631,2644,2640,2627,2647,2649,2634,2649,2633,2641,2640,2631,2646,2640,2642,2625,2649,2647,2635,2643,2638,2631,2630,2643,2637,2645,2634,close
2642,2634,2639,2640,2631,2640,2649,2615,2640,2650,2638,2640,2637,2651,2640,2643,2640,2640,2641,2625,2647,2649,2640,2641,2625,2646,2655,2639,2643,2643,2640,2642,2643,2631,2649,2643,2643,2628,2633,2645,2638,2639,2640,2634,2640,2640,2640,2634,2631,2638,2639,2645,2644,2646,2634,2624,2644,2635,2642,2640,2623,2634,2653,2640,2647,2647,2645,2637,2647,2635,2640,2646,2636,2640,2647,2641,2640,2643,2623,2634,2638,2637,2643,2643,2640,2626,2641,2642,2640,2643,2650,2624,2643,2634,2640,2631,2634,2633,2641,2635,2646,2642,2653,2636,2641,2641,2648,2633,2640,2630,2641,2635,2648,2643,2640,2624,2639,2650,2634,2646,2630,2636,2643,2637,2649,2634,2634,2625,2647,2637,2648,2646,2633,2640,2640,2639,2649,2640,2635,2634,2644,2638,2642,2645,2624,2640,2653,2631,2647,2643,2655,2637,2646,2642,2640,2646,2639,2649,2642,2644,2651,2637,2626,2640,2637,2645,2651,2640,2651,2633,2640,2641,2639,2641,2642,2638,2644,2642,2642,2639,2649,2637,2650,2643,2643,2640,2637,2642,2649,2644,2645,2647,2641,2640,2640,2637,2643,2641,2639,2649,2641,2631,2639,2642,2645,2642,2637,2640,2640,2641,2642,2624,2649,2640,2642,2646,2641,2625,2643,2637,2653,2641,2637,2640,2641,2641,2640,2640,2626,2627,2634,2637,2645,2639,2627,2638,2630,2641,2647,2639,2629,2625,2655,2639,2642,2634,2637,2640,2629,2643,2644,2641,2640,2642,2647,2645,2638,2644,2629,2639,2639,2635,2641,2635,2640,2627,2643,2640,2640,2645,2640,2633,2635,2645,2635,2647,2629,2640,2640,2639,2645,2630,2637,2635,2643,2651,2639,2647,2634,2646,2641,2640,2644,2640,2641,2647,2640,2642,2641,2642,close
